time,amplitude,sr,250.0
0.000000,-0.29856115
0.004000,-0.29856115
0.008000,-0.30935252
0.012000,-0.32014388
0.016000,-0.33093525
0.020000,-0.30935252
0.024000,-0.31654676
0.028000,-0.31654676
0.032000,-0.32374101
0.036000,-0.30935252
0.040000,-0.30215827
0.044000,-0.32014388
0.048000,-0.32733813
0.052000,-0.31294964
0.056000,-0.29496403
0.060000,-0.28776978
0.064000,-0.28417266
0.068000,-0.29136691
0.072000,-0.28776978
0.076000,-0.29136691
0.080000,-0.30935252
0.084000,-0.31294964
0.088000,-0.29496403
0.092000,-0.30215827
0.096000,-0.29136691
0.100000,-0.30215827
0.104000,-0.29496403
0.108000,-0.31294964
0.112000,-0.30215827
0.116000,-0.29496403
0.120000,-0.29496403
0.124000,-0.29136691
0.128000,-0.29136691
0.132000,-0.29136691
0.136000,-0.27697842
0.140000,-0.26618705
0.144000,-0.25179856
0.148000,-0.24460432
0.152000,-0.23741007
0.156000,-0.23741007
0.160000,-0.24820144
0.164000,-0.23021583
0.168000,-0.24100719
0.172000,-0.21582734
0.176000,-0.23381295
0.180000,-0.22661871
0.184000,-0.20503597
0.188000,-0.20503597
0.192000,-0.18705036
0.196000,-0.19784173
0.200000,-0.18705036
0.204000,-0.17985612
0.208000,-0.17985612
0.212000,-0.18705036
0.216000,-0.15827338
0.220000,-0.15827338
0.224000,-0.16906475
0.228000,-0.14748201
0.232000,-0.14748201
0.236000,-0.15827338
0.240000,-0.15827338
0.244000,-0.16187050
0.248000,-0.17266187
0.252000,-0.15107914
0.256000,-0.15827338
0.260000,-0.13669065
0.264000,-0.12230216
0.268000,-0.14028777
0.272000,-0.15107914
0.276000,-0.13669065
0.280000,-0.14388489
0.284000,-0.11151079
0.288000,-0.12230216
0.292000,-0.12230216
0.296000,-0.12230216
0.300000,-0.10071942
0.304000,-0.07553957
0.308000,-0.04676259
0.312000,-0.00719424
0.316000,0.02877698
0.320000,0.06834532
0.324000,0.09352518
0.328000,0.10791367
0.332000,0.12230216
0.336000,0.12230216
0.340000,0.13669065
0.344000,0.11510791
0.348000,0.09352518
0.352000,0.06115108
0.356000,0.02158273
0.360000,-0.02877698
0.364000,-0.08273381
0.368000,-0.10791367
0.372000,-0.15827338
0.376000,-0.17625899
0.380000,-0.19424460
0.384000,-0.19064748
0.388000,-0.18705036
0.392000,-0.18705036
0.396000,-0.17625899
0.400000,-0.17985612
0.404000,-0.17985612
0.408000,-0.17985612
0.412000,-0.16906475
0.416000,-0.16546763
0.420000,-0.16187050
0.424000,-0.17625899
0.428000,-0.16906475
0.432000,-0.16187050
0.436000,-0.15107914
0.440000,-0.15107914
0.444000,-0.15827338
0.448000,-0.13309353
0.452000,-0.14388489
0.456000,-0.13669065
0.460000,-0.12949640
0.464000,-0.14388489
0.468000,-0.14388489
0.472000,-0.14388489
0.476000,-0.14748201
0.480000,-0.14028777
0.484000,-0.11870504
0.488000,-0.08633094
0.492000,-0.07194245
0.496000,-0.03237410
0.500000,0.00719424
0.504000,0.06474820
0.508000,0.11870504
0.512000,0.16906475
0.516000,0.19784173
0.520000,0.22302158
0.524000,0.24460432
0.528000,0.25899281
0.532000,0.27697842
0.536000,0.36330935
0.540000,0.53237410
0.544000,0.73381295
0.548000,0.83453237
0.552000,0.70503597
0.556000,0.35971223
0.560000,0.03597122
0.564000,-0.14748201
0.568000,-0.21582734
0.572000,-0.24460432
0.576000,-0.25899281
0.580000,-0.24820144
0.584000,-0.24460432
0.588000,-0.25179856
0.592000,-0.26618705
0.596000,-0.24460432
0.600000,-0.25899281
0.604000,-0.25539568
0.608000,-0.26978417
0.612000,-0.26258993
0.616000,-0.24460432
0.620000,-0.24100719
0.624000,-0.23741007
0.628000,-0.25539568
0.632000,-0.25899281
0.636000,-0.25899281
0.640000,-0.25899281
0.644000,-0.26618705
0.648000,-0.25899281
0.652000,-0.26258993
0.656000,-0.26618705
0.660000,-0.25539568
0.664000,-0.25539568
0.668000,-0.25899281
0.672000,-0.25899281
0.676000,-0.25899281
0.680000,-0.25539568
0.684000,-0.24460432
0.688000,-0.23741007
0.692000,-0.23021583
0.696000,-0.23021583
0.700000,-0.22302158
0.704000,-0.22661871
0.708000,-0.20863309
0.712000,-0.20503597
0.716000,-0.17985612
0.720000,-0.17266187
0.724000,-0.17625899
0.728000,-0.16906475
0.732000,-0.17266187
0.736000,-0.16546763
0.740000,-0.15827338
0.744000,-0.16546763
0.748000,-0.15467626
0.752000,-0.15827338
0.756000,-0.15107914
0.760000,-0.16546763
0.764000,-0.14388489
0.768000,-0.14028777
0.772000,-0.14028777
0.776000,-0.14748201
0.780000,-0.13309353
0.784000,-0.14748201
0.788000,-0.13309353
0.792000,-0.11510791
0.796000,-0.12949640
0.800000,-0.12589928
0.804000,-0.12230216
0.808000,-0.09712230
0.812000,-0.11151079
0.816000,-0.11510791
0.820000,-0.09712230
0.824000,-0.08273381
0.828000,-0.07913669
0.832000,-0.06834532
0.836000,-0.07194245
0.840000,-0.05755396
0.844000,-0.04316547
0.848000,-0.02877698
0.852000,-0.02158273
0.856000,-0.03237410
0.860000,-0.00719424
0.864000,0.01798561
0.868000,0.03956835
0.872000,0.06474820
0.876000,0.07553957
0.880000,0.09352518
0.884000,0.11151079
0.888000,0.13309353
0.892000,0.15107914
0.896000,0.13309353
0.900000,0.11510791
0.904000,0.10071942
0.908000,0.06834532
0.912000,0.02158273
0.916000,-0.01079137
0.920000,-0.05755396
0.924000,-0.08992806
0.928000,-0.12230216
0.932000,-0.15827338
0.936000,-0.16546763
0.940000,-0.17625899
0.944000,-0.15467626
0.948000,-0.16546763
0.952000,-0.14388489
0.956000,-0.14388489
0.960000,-0.12949640
0.964000,-0.13669065
0.968000,-0.12949640
0.972000,-0.12589928
0.976000,-0.13669065
0.980000,-0.11510791
0.984000,-0.11870504
0.988000,-0.12589928
0.992000,-0.13309353
0.996000,-0.13309353
1.000000,-0.13309353
1.004000,-0.12589928
1.008000,-0.12230216
1.012000,-0.14028777
1.016000,-0.12589928
1.020000,-0.13309353
1.024000,-0.12589928
1.028000,-0.12230216
1.032000,-0.13309353
1.036000,-0.11510791
1.040000,-0.10431655
1.044000,-0.09712230
1.048000,-0.05755396
1.052000,-0.01079137
1.056000,0.01798561
1.060000,0.08273381
1.064000,0.12589928
1.068000,0.17266187
1.072000,0.18705036
1.076000,0.20143885
1.080000,0.22661871
1.084000,0.23021583
1.088000,0.26618705
1.092000,0.35251799
1.096000,0.51079137
1.100000,0.68705036
1.104000,0.81294964
1.108000,0.76618705
1.112000,0.50000000
1.116000,0.14388489
1.120000,-0.08633094
1.124000,-0.20503597
1.128000,-0.24460432
1.132000,-0.28057554
1.136000,-0.25899281
1.140000,-0.25539568
1.144000,-0.26258993
1.148000,-0.26618705
1.152000,-0.25539568
1.156000,-0.25539568
1.160000,-0.22302158
1.164000,-0.23741007
1.168000,-0.24460432
1.172000,-0.24100719
1.176000,-0.25539568
1.180000,-0.24820144
1.184000,-0.25539568
1.188000,-0.24100719
1.192000,-0.24820144
1.196000,-0.24820144
1.200000,-0.24820144
1.204000,-0.24460432
1.208000,-0.23021583
1.212000,-0.22661871
1.216000,-0.23741007
1.220000,-0.23381295
1.224000,-0.23021583
1.228000,-0.25179856
1.232000,-0.23741007
1.236000,-0.23021583
1.240000,-0.21942446
1.244000,-0.20503597
1.248000,-0.21582734
1.252000,-0.20143885
1.256000,-0.21582734
1.260000,-0.21223022
1.264000,-0.22302158
1.268000,-0.23021583
1.272000,-0.19784173
1.276000,-0.19784173
1.280000,-0.19784173
1.284000,-0.19064748
1.288000,-0.19064748
1.292000,-0.19424460
1.296000,-0.17985612
1.300000,-0.18345324
1.304000,-0.18705036
1.308000,-0.19424460
1.312000,-0.15827338
1.316000,-0.15827338
1.320000,-0.15827338
1.324000,-0.15467626
1.328000,-0.12949640
1.332000,-0.13309353
1.336000,-0.13309353
1.340000,-0.14388489
1.344000,-0.11870504
1.348000,-0.12949640
1.352000,-0.11870504
1.356000,-0.11870504
1.360000,-0.12230216
1.364000,-0.10071942
1.368000,-0.07913669
1.372000,-0.08992806
1.376000,-0.10071942
1.380000,-0.09352518
1.384000,-0.08633094
1.388000,-0.08633094
1.392000,-0.08633094
1.396000,-0.09352518
1.400000,-0.09352518
1.404000,-0.08633094
1.408000,-0.08992806
1.412000,-0.07553957
1.416000,-0.05035971
1.420000,-0.03237410
1.424000,-0.00719424
1.428000,0.00719424
1.432000,0.03597122
1.436000,0.08273381
1.440000,0.07553957
1.444000,0.11151079
1.448000,0.12230216
1.452000,0.12949640
1.456000,0.12949640
1.460000,0.12949640
1.464000,0.11510791
1.468000,0.07194245
1.472000,0.05395683
1.476000,0.00359712
1.480000,-0.02877698
1.484000,-0.05755396
1.488000,-0.10071942
1.492000,-0.12949640
1.496000,-0.15467626
1.500000,-0.16187050
1.504000,-0.15827338
1.508000,-0.16187050
1.512000,-0.16906475
1.516000,-0.15827338
1.520000,-0.15827338
1.524000,-0.14388489
1.528000,-0.14388489
1.532000,-0.14748201
1.536000,-0.14748201
1.540000,-0.14748201
1.544000,-0.14028777
1.548000,-0.15107914
1.552000,-0.13669065
1.556000,-0.12949640
1.560000,-0.12589928
1.564000,-0.11870504
1.568000,-0.11510791
1.572000,-0.12949640
1.576000,-0.14028777
1.580000,-0.13309353
1.584000,-0.13309353
1.588000,-0.12949640
1.592000,-0.11510791
1.596000,-0.08633094
1.600000,-0.08633094
1.604000,-0.07194245
1.608000,-0.03956835
1.612000,-0.00719424
1.616000,0.05395683
1.620000,0.10071942
1.624000,0.16906475
1.628000,0.22302158
1.632000,0.24820144
1.636000,0.26978417
1.640000,0.30215827
1.644000,0.32014388
1.648000,0.33812950
1.652000,0.35971223
1.656000,0.45683453
1.660000,0.63669065
1.664000,0.80575540
1.668000,0.83093525
1.672000,0.60071942
1.676000,0.26978417
1.680000,0.00000000
1.684000,-0.14028777
1.688000,-0.20143885
1.692000,-0.20503597
1.696000,-0.21223022
1.700000,-0.20143885
1.704000,-0.19784173
1.708000,-0.19784173
1.712000,-0.20143885
1.716000,-0.20143885
1.720000,-0.19784173
1.724000,-0.20863309
1.728000,-0.19784173
1.732000,-0.17625899
1.736000,-0.17985612
1.740000,-0.19064748
1.744000,-0.18705036
1.748000,-0.19784173
1.752000,-0.19784173
1.756000,-0.19424460
1.760000,-0.18345324
1.764000,-0.19424460
1.768000,-0.20143885
1.772000,-0.20863309
1.776000,-0.21223022
1.780000,-0.22661871
1.784000,-0.21582734
1.788000,-0.21942446
1.792000,-0.20143885
1.796000,-0.20503597
1.800000,-0.20143885
1.804000,-0.19424460
1.808000,-0.19784173
1.812000,-0.20143885
1.816000,-0.19784173
1.820000,-0.18705036
1.824000,-0.17625899
1.828000,-0.17625899
1.832000,-0.16546763
1.836000,-0.15107914
1.840000,-0.15827338
1.844000,-0.14388489
1.848000,-0.13669065
1.852000,-0.14388489
1.856000,-0.12949640
1.860000,-0.13669065
1.864000,-0.12589928
1.868000,-0.11151079
1.872000,-0.11510791
1.876000,-0.10431655
1.880000,-0.10791367
1.884000,-0.10071942
1.888000,-0.07913669
1.892000,-0.07913669
1.896000,-0.07194245
1.900000,-0.07553957
1.904000,-0.07913669
1.908000,-0.07194245
1.912000,-0.06834532
1.916000,-0.06834532
1.920000,-0.06474820
1.924000,-0.04316547
1.928000,-0.04316547
1.932000,-0.04316547
1.936000,-0.03237410
1.940000,-0.03237410
1.944000,-0.02158273
1.948000,-0.01438849
1.952000,-0.02158273
1.956000,-0.01798561
1.960000,-0.00359712
1.964000,0.00359712
1.968000,0.00719424
1.972000,0.02158273
1.976000,0.03597122
1.980000,0.05035971
1.984000,0.08273381
1.988000,0.08992806
1.992000,0.11870504
1.996000,0.15467626
2.000000,0.16906475
2.004000,0.16906475
2.008000,0.19784173
2.012000,0.20863309
2.016000,0.23381295
2.020000,0.23741007
2.024000,0.23381295
2.028000,0.20143885
2.032000,0.14028777
2.036000,0.09352518
2.040000,0.06474820
2.044000,0.01438849
2.048000,-0.01079137
2.052000,-0.05035971
2.056000,-0.07553957
2.060000,-0.08633094
2.064000,-0.09352518
2.068000,-0.09352518
2.072000,-0.08273381
2.076000,-0.08633094
2.080000,-0.08633094
2.084000,-0.08992806
2.088000,-0.07194245
2.092000,-0.06474820
2.096000,-0.05755396
2.100000,-0.05035971
2.104000,-0.04676259
2.108000,-0.05395683
2.112000,-0.04316547
2.116000,-0.06115108
2.120000,-0.07194245
2.124000,-0.07194245
2.128000,-0.06474820
2.132000,-0.06474820
2.136000,-0.07913669
2.140000,-0.07553957
2.144000,-0.07913669
2.148000,-0.07553957
2.152000,-0.08633094
2.156000,-0.07913669
2.160000,-0.07553957
2.164000,-0.07194245
2.168000,-0.05755396
2.172000,-0.03597122
2.176000,0.00359712
2.180000,0.02517986
2.184000,0.09712230
2.188000,0.16906475
2.192000,0.18345324
2.196000,0.22302158
2.200000,0.24460432
2.204000,0.25539568
2.208000,0.28057554
2.212000,0.29496403
2.216000,0.32374101
2.220000,0.41726619
2.224000,0.60071942
2.228000,0.80935252
2.232000,0.91726619
2.236000,0.80215827
2.240000,0.49280576
2.244000,0.14028777
2.248000,-0.04676259
2.252000,-0.13669065
2.256000,-0.20143885
2.260000,-0.20863309
2.264000,-0.21582734
2.268000,-0.19424460
2.272000,-0.20863309
2.276000,-0.22302158
2.280000,-0.20503597
2.284000,-0.20863309
2.288000,-0.21582734
2.292000,-0.20503597
2.296000,-0.20143885
2.300000,-0.19784173
2.304000,-0.20863309
2.308000,-0.20143885
2.312000,-0.19784173
2.316000,-0.21223022
2.320000,-0.20863309
2.324000,-0.21223022
2.328000,-0.20143885
2.332000,-0.19784173
2.336000,-0.21582734
2.340000,-0.22302158
2.344000,-0.21582734
2.348000,-0.20503597
2.352000,-0.20143885
2.356000,-0.19064748
2.360000,-0.21223022
2.364000,-0.20143885
2.368000,-0.18705036
2.372000,-0.19784173
2.376000,-0.19064748
2.380000,-0.17266187
2.384000,-0.17985612
2.388000,-0.16906475
2.392000,-0.16906475
2.396000,-0.15827338
2.400000,-0.16187050
2.404000,-0.15107914
2.408000,-0.15467626
2.412000,-0.15467626
2.416000,-0.15467626
2.420000,-0.15827338
2.424000,-0.13669065
2.428000,-0.14388489
2.432000,-0.12949640
2.436000,-0.10791367
2.440000,-0.11870504
2.444000,-0.11510791
2.448000,-0.10431655
2.452000,-0.10071942
2.456000,-0.09352518
2.460000,-0.09712230
2.464000,-0.11510791
2.468000,-0.11151079
2.472000,-0.09352518
2.476000,-0.08992806
2.480000,-0.08273381
2.484000,-0.07194245
2.488000,-0.06474820
2.492000,-0.06474820
2.496000,-0.05395683
2.500000,-0.05035971
2.504000,-0.04676259
2.508000,-0.05395683
2.512000,-0.03956835
2.516000,-0.03956835
2.520000,-0.03237410
2.524000,-0.02517986
2.528000,0.00000000
2.532000,-0.00359712
2.536000,0.00000000
2.540000,0.01438849
2.544000,0.03237410
2.548000,0.07194245
2.552000,0.10791367
2.556000,0.12949640
2.560000,0.13669065
2.564000,0.13669065
2.568000,0.15827338
2.572000,0.15467626
2.576000,0.15467626
2.580000,0.14028777
2.584000,0.12230216
2.588000,0.08273381
2.592000,0.04316547
2.596000,0.00359712
2.600000,-0.02517986
2.604000,-0.06115108
2.608000,-0.07553957
2.612000,-0.08992806
2.616000,-0.11870504
2.620000,-0.12230216
2.624000,-0.11151079
2.628000,-0.11151079
2.632000,-0.10431655
2.636000,-0.10071942
2.640000,-0.11151079
2.644000,-0.10791367
2.648000,-0.08633094
2.652000,-0.07913669
2.656000,-0.09352518
2.660000,-0.10431655
2.664000,-0.10431655
2.668000,-0.10431655
2.672000,-0.10791367
2.676000,-0.09712230
2.680000,-0.08633094
2.684000,-0.08992806
2.688000,-0.08992806
2.692000,-0.08633094
2.696000,-0.07553957
2.700000,-0.08992806
2.704000,-0.08633094
2.708000,-0.08992806
2.712000,-0.08633094
2.716000,-0.07194245
2.720000,-0.06474820
2.724000,-0.05035971
2.728000,-0.02158273
2.732000,0.02158273
2.736000,0.08633094
2.740000,0.12949640
2.744000,0.18705036
2.748000,0.23741007
2.752000,0.24820144
2.756000,0.27338129
2.760000,0.27338129
2.764000,0.26978417
2.768000,0.28776978
2.772000,0.35251799
2.776000,0.49280576
2.780000,0.69784173
2.784000,0.87050360
2.788000,0.88129496
2.792000,0.62589928
2.796000,0.25179856
2.800000,-0.01798561
2.804000,-0.15467626
2.808000,-0.21942446
2.812000,-0.24460432
2.816000,-0.22302158
2.820000,-0.18705036
2.824000,-0.18345324
2.828000,-0.19424460
2.832000,-0.19064748
2.836000,-0.17985612
2.840000,-0.17266187
2.844000,-0.18705036
2.848000,-0.17985612
2.852000,-0.19064748
2.856000,-0.18705036
2.860000,-0.15827338
2.864000,-0.16187050
2.868000,-0.16546763
2.872000,-0.16906475
2.876000,-0.15467626
2.880000,-0.15827338
2.884000,-0.15467626
2.888000,-0.16546763
2.892000,-0.17625899
2.896000,-0.17985612
2.900000,-0.17625899
2.904000,-0.17625899
2.908000,-0.16546763
2.912000,-0.16546763
2.916000,-0.17625899
2.920000,-0.17625899
2.924000,-0.15827338
2.928000,-0.14028777
2.932000,-0.15107914
2.936000,-0.15107914
2.940000,-0.14748201
2.944000,-0.14748201
2.948000,-0.13309353
2.952000,-0.12589928
2.956000,-0.12589928
2.960000,-0.11510791
2.964000,-0.12589928
2.968000,-0.12589928
2.972000,-0.11510791
2.976000,-0.11151079
2.980000,-0.10071942
2.984000,-0.09712230
2.988000,-0.07553957
2.992000,-0.07553957
2.996000,-0.07553957
3.000000,-0.07194245
3.004000,-0.06834532
3.008000,-0.06474820
3.012000,-0.04676259
3.016000,-0.05035971
3.020000,-0.03956835
3.024000,-0.03956835
3.028000,-0.05755396
3.032000,-0.05035971
3.036000,-0.05395683
3.040000,-0.05395683
3.044000,-0.05035971
3.048000,-0.05755396
3.052000,-0.03597122
3.056000,-0.03597122
3.060000,-0.03237410
3.064000,-0.03597122
3.068000,-0.05035971
3.072000,-0.03237410
3.076000,-0.02877698
3.080000,0.00000000
3.084000,0.00000000
3.088000,0.02158273
3.092000,0.03237410
3.096000,0.06115108
3.100000,0.07553957
3.104000,0.11870504
3.108000,0.13309353
3.112000,0.14028777
3.116000,0.16187050
3.120000,0.18345324
3.124000,0.19424460
3.128000,0.20143885
3.132000,0.19784173
3.136000,0.16546763
3.140000,0.11510791
3.144000,0.06834532
3.148000,0.02517986
3.152000,-0.01438849
3.156000,-0.06474820
3.160000,-0.08633094
3.164000,-0.11151079
3.168000,-0.12949640
3.172000,-0.14028777
3.176000,-0.14748201
3.180000,-0.13669065
3.184000,-0.14028777
3.188000,-0.12949640
3.192000,-0.11870504
3.196000,-0.10791367
3.200000,-0.11510791
3.204000,-0.10791367
3.208000,-0.09712230
3.212000,-0.10791367
3.216000,-0.11510791
3.220000,-0.10431655
3.224000,-0.09712230
3.228000,-0.09712230
3.232000,-0.09352518
3.236000,-0.08273381
3.240000,-0.07913669
3.244000,-0.08992806
3.248000,-0.08273381
3.252000,-0.09712230
3.256000,-0.08992806
3.260000,-0.07194245
3.264000,-0.07913669
3.268000,-0.07553957
3.272000,-0.06834532
3.276000,-0.05395683
3.280000,-0.03956835
3.284000,0.00359712
3.288000,0.05035971
3.292000,0.11510791
3.296000,0.17625899
3.300000,0.22661871
3.304000,0.26258993
3.308000,0.29856115
3.312000,0.30935252
3.316000,0.32014388
3.320000,0.33453237
3.324000,0.36690647
3.328000,0.45683453
3.332000,0.64028777
3.336000,0.83453237
3.340000,0.86330935
3.344000,0.65827338
3.348000,0.30575540
3.352000,0.01438849
3.356000,-0.12589928
3.360000,-0.17625899
3.364000,-0.19784173
3.368000,-0.18705036
3.372000,-0.17985612
3.376000,-0.19424460
3.380000,-0.20863309
3.384000,-0.21582734
3.388000,-0.19784173
3.392000,-0.19424460
3.396000,-0.20863309
3.400000,-0.19424460
3.404000,-0.19424460
3.408000,-0.19064748
3.412000,-0.19424460
3.416000,-0.20503597
3.420000,-0.21223022
3.424000,-0.20503597
3.428000,-0.21223022
3.432000,-0.21582734
3.436000,-0.19784173
3.440000,-0.19064748
3.444000,-0.20503597
3.448000,-0.20503597
3.452000,-0.20143885
3.456000,-0.21582734
3.460000,-0.20863309
3.464000,-0.21942446
3.468000,-0.21942446
3.472000,-0.20863309
3.476000,-0.18705036
3.480000,-0.17985612
3.484000,-0.19064748
3.488000,-0.16546763
3.492000,-0.16187050
3.496000,-0.14748201
3.500000,-0.14028777
3.504000,-0.13669065
3.508000,-0.15107914
3.512000,-0.14388489
3.516000,-0.11510791
3.520000,-0.12230216
3.524000,-0.12230216
3.528000,-0.14028777
3.532000,-0.11510791
3.536000,-0.11151079
3.540000,-0.09352518
3.544000,-0.10431655
3.548000,-0.10791367
3.552000,-0.09712230
3.556000,-0.08992806
3.560000,-0.09352518
3.564000,-0.08633094
3.568000,-0.08633094
3.572000,-0.06834532
3.576000,-0.07194245
3.580000,-0.05755396
3.584000,-0.06115108
3.588000,-0.04676259
3.592000,-0.03956835
3.596000,-0.03237410
3.600000,-0.05035971
3.604000,-0.03237410
3.608000,-0.02517986
3.612000,-0.03956835
3.616000,-0.03956835
3.620000,-0.02517986
3.624000,-0.01438849
3.628000,-0.01079137
3.632000,0.00000000
3.636000,0.00000000
3.640000,0.01798561
3.644000,0.03237410
3.648000,0.03237410
3.652000,0.05755396
3.656000,0.04676259
3.660000,0.05755396
3.664000,0.08992806
3.668000,0.13309353
3.672000,0.14748201
3.676000,0.14748201
3.680000,0.16546763
3.684000,0.20503597
3.688000,0.21942446
3.692000,0.23741007
3.696000,0.21942446
3.700000,0.21223022
3.704000,0.16906475
3.708000,0.14028777
3.712000,0.11151079
3.716000,0.07194245
3.720000,0.02877698
3.724000,-0.00359712
3.728000,-0.03237410
3.732000,-0.03597122
3.736000,-0.06115108
3.740000,-0.06115108
3.744000,-0.05395683
3.748000,-0.03237410
3.752000,-0.02517986
3.756000,-0.01438849
3.760000,-0.01079137
3.764000,-0.00719424
3.768000,-0.02517986
3.772000,-0.02517986
3.776000,-0.03237410
3.780000,-0.01438849
3.784000,-0.01079137
3.788000,-0.02158273
3.792000,-0.02877698
3.796000,-0.02877698
3.800000,-0.02877698
3.804000,-0.02877698
3.808000,-0.01798561
3.812000,-0.01798561
3.816000,-0.01438849
3.820000,-0.02517986
3.824000,-0.02158273
3.828000,-0.03237410
3.832000,-0.01798561
3.836000,-0.03237410
3.840000,-0.01798561
3.844000,0.00000000
3.848000,0.02517986
3.852000,0.08992806
3.856000,0.15827338
3.860000,0.21942446
3.864000,0.28417266
3.868000,0.33453237
3.872000,0.35611511
3.876000,0.35611511
3.880000,0.38848921
3.884000,0.38848921
3.888000,0.42086331
3.892000,0.48561151
3.896000,0.66187050
3.900000,0.87410072
3.904000,1.00000000
3.908000,0.87410072
3.912000,0.54316547
3.916000,0.20503597
3.920000,-0.00719424
3.924000,-0.10071942
3.928000,-0.14388489
3.932000,-0.15467626
3.936000,-0.13309353
3.940000,-0.12949640
3.944000,-0.15467626
3.948000,-0.15827338
3.952000,-0.15827338
3.956000,-0.15827338
3.960000,-0.15467626
3.964000,-0.16187050
3.968000,-0.15827338
3.972000,-0.16187050
3.976000,-0.15827338
3.980000,-0.16546763
3.984000,-0.15467626
3.988000,-0.15107914
3.992000,-0.15107914
3.996000,-0.15107914
4.000000,-0.14748201
4.004000,-0.14748201
4.008000,-0.14748201
4.012000,-0.14028777
4.016000,-0.15107914
4.020000,-0.15107914
4.024000,-0.15107914
4.028000,-0.15467626
4.032000,-0.14748201
4.036000,-0.15467626
4.040000,-0.16546763
4.044000,-0.15467626
4.048000,-0.14388489
4.052000,-0.14748201
4.056000,-0.14028777
4.060000,-0.13669065
4.064000,-0.12589928
4.068000,-0.11870504
4.072000,-0.10791367
4.076000,-0.08992806
4.080000,-0.08992806
4.084000,-0.08992806
4.088000,-0.10791367
4.092000,-0.09352518
4.096000,-0.08992806
4.100000,-0.07194245
4.104000,-0.08273381
4.108000,-0.08273381
4.112000,-0.06834532
4.116000,-0.04676259
4.120000,-0.05755396
4.124000,-0.04316547
4.128000,-0.05755396
4.132000,-0.05035971
4.136000,-0.03956835
4.140000,-0.03956835
4.144000,-0.05035971
4.148000,-0.05395683
4.152000,-0.03237410
4.156000,-0.01798561
4.160000,-0.03956835
4.164000,-0.03597122
4.168000,-0.03597122
4.172000,-0.03237410
4.176000,-0.02158273
4.180000,-0.01438849
4.184000,-0.01079137
4.188000,-0.01079137
4.192000,-0.00359712
4.196000,0.00719424
4.200000,0.01798561
4.204000,0.03597122
4.208000,0.03956835
4.212000,0.05035971
4.216000,0.05395683
4.220000,0.08633094
4.224000,0.12589928
4.228000,0.15107914
4.232000,0.16187050
4.236000,0.17985612
4.240000,0.20143885
4.244000,0.20143885
4.248000,0.21582734
4.252000,0.21223022
4.256000,0.19784173
4.260000,0.17625899
4.264000,0.13309353
4.268000,0.09712230
4.272000,0.04676259
4.276000,0.01079137
4.280000,-0.03597122
4.284000,-0.06834532
4.288000,-0.08633094
4.292000,-0.10431655
4.296000,-0.11151079
4.300000,-0.11510791
4.304000,-0.09352518
4.308000,-0.11151079
4.312000,-0.10071942
4.316000,-0.09712230
4.320000,-0.09712230
4.324000,-0.08992806
4.328000,-0.08992806
4.332000,-0.09352518
4.336000,-0.08633094
4.340000,-0.08633094
4.344000,-0.08992806
4.348000,-0.07913669
4.352000,-0.08273381
4.356000,-0.07553957
4.360000,-0.07913669
4.364000,-0.05755396
4.368000,-0.06474820
4.372000,-0.04316547
4.376000,-0.06115108
4.380000,-0.06474820
4.384000,-0.05755396
4.388000,-0.06834532
4.392000,-0.05395683
4.396000,-0.05035971
4.400000,-0.03597122
4.404000,-0.01438849
4.408000,0.02877698
4.412000,0.08273381
4.416000,0.12230216
4.420000,0.17266187
4.424000,0.21223022
4.428000,0.21942446
4.432000,0.23741007
4.436000,0.24820144
4.440000,0.24820144
4.444000,0.28057554
4.448000,0.34532374
4.452000,0.48201439
4.456000,0.69424460
4.460000,0.85611511
4.464000,0.84532374
4.468000,0.60431655
4.472000,0.25179856
4.476000,-0.00719424
4.480000,-0.14388489
4.484000,-0.19784173
4.488000,-0.22661871
4.492000,-0.21582734
4.496000,-0.20143885
4.500000,-0.19784173
4.504000,-0.18705036
4.508000,-0.18345324
4.512000,-0.17625899
4.516000,-0.18345324
4.520000,-0.20143885
4.524000,-0.18345324
4.528000,-0.18705036
4.532000,-0.18705036
4.536000,-0.19064748
4.540000,-0.18705036
4.544000,-0.17985612
4.548000,-0.16906475
4.552000,-0.17985612
4.556000,-0.17625899
4.560000,-0.17985612
4.564000,-0.18345324
4.568000,-0.17625899
4.572000,-0.17985612
4.576000,-0.16546763
4.580000,-0.15827338
4.584000,-0.16546763
4.588000,-0.17985612
4.592000,-0.16906475
4.596000,-0.17625899
4.600000,-0.16906475
4.604000,-0.15107914
4.608000,-0.15467626
4.612000,-0.15107914
4.616000,-0.12949640
4.620000,-0.13669065
4.624000,-0.12589928
4.628000,-0.10071942
4.632000,-0.10071942
4.636000,-0.10791367
4.640000,-0.11510791
4.644000,-0.11510791
4.648000,-0.11510791
4.652000,-0.10071942
4.656000,-0.07194245
4.660000,-0.06834532
4.664000,-0.06474820
4.668000,-0.06834532
4.672000,-0.07553957
4.676000,-0.07194245
4.680000,-0.06834532
4.684000,-0.06474820
4.688000,-0.06834532
4.692000,-0.06834532
4.696000,-0.07913669
4.700000,-0.06834532
4.704000,-0.06115108
4.708000,-0.06115108
4.712000,-0.05035971
4.716000,-0.02877698
4.720000,-0.04316547
4.724000,-0.04316547
4.728000,-0.05035971
4.732000,-0.04676259
4.736000,-0.03956835
4.740000,-0.01798561
4.744000,-0.00359712
4.748000,0.00000000
4.752000,0.01079137
4.756000,0.02158273
4.760000,0.03956835
4.764000,0.04676259
4.768000,0.06115108
4.772000,0.05395683
4.776000,0.09712230
4.780000,0.11870504
4.784000,0.15107914
4.788000,0.13669065
4.792000,0.16187050
4.796000,0.17625899
4.800000,0.18705036
4.804000,0.19424460
4.808000,0.19424460
4.812000,0.16906475
4.816000,0.13669065
4.820000,0.10791367
4.824000,0.07913669
4.828000,0.02877698
4.832000,-0.01798561
4.836000,-0.03956835
4.840000,-0.07913669
4.844000,-0.09352518
4.848000,-0.11870504
4.852000,-0.12589928
4.856000,-0.12589928
4.860000,-0.11510791
4.864000,-0.11510791
4.868000,-0.09712230
4.872000,-0.07913669
4.876000,-0.07913669
4.880000,-0.07194245
4.884000,-0.07553957
4.888000,-0.07194245
4.892000,-0.06474820
4.896000,-0.06474820
4.900000,-0.06115108
4.904000,-0.06474820
4.908000,-0.06474820
4.912000,-0.07194245
4.916000,-0.05755396
4.920000,-0.04316547
4.924000,-0.05035971
4.928000,-0.07194245
4.932000,-0.09352518
4.936000,-0.08273381
4.940000,-0.07553957
4.944000,-0.05755396
4.948000,-0.05035971
4.952000,-0.05035971
4.956000,-0.03237410
4.960000,0.00719424
4.964000,0.05755396
4.968000,0.10791367
4.972000,0.17266187
4.976000,0.23021583
4.980000,0.27338129
4.984000,0.31654676
4.988000,0.34532374
4.992000,0.37769784
4.996000,0.37050360
5.000000,0.38848921
5.004000,0.43165468
5.008000,0.56834532
5.012000,0.78057554
5.016000,0.92446043
5.020000,0.88489209
5.024000,0.58633094
5.028000,0.22661871
5.032000,0.01079137
5.036000,-0.08273381
5.040000,-0.15107914
5.044000,-0.16187050
5.048000,-0.14388489
5.052000,-0.14748201
5.056000,-0.17266187
5.060000,-0.18345324
5.064000,-0.17625899
5.068000,-0.17625899
5.072000,-0.15827338
5.076000,-0.16906475
5.080000,-0.16546763
5.084000,-0.18345324
5.088000,-0.18345324
5.092000,-0.17266187
5.096000,-0.16906475
5.100000,-0.17266187
5.104000,-0.16546763
5.108000,-0.16546763
5.112000,-0.17625899
5.116000,-0.15467626
5.120000,-0.15467626
5.124000,-0.14028777
5.128000,-0.14388489
5.132000,-0.15107914
5.136000,-0.16906475
5.140000,-0.16906475
5.144000,-0.16906475
5.148000,-0.16546763
5.152000,-0.15827338
5.156000,-0.15467626
5.160000,-0.14388489
5.164000,-0.15827338
5.168000,-0.15827338
5.172000,-0.15467626
5.176000,-0.14388489
5.180000,-0.12230216
5.184000,-0.14028777
5.188000,-0.11870504
5.192000,-0.12230216
5.196000,-0.11151079
5.200000,-0.11510791
5.204000,-0.11510791
5.208000,-0.11151079
5.212000,-0.10431655
5.216000,-0.08273381
5.220000,-0.10071942
5.224000,-0.10071942
5.228000,-0.09712230
5.232000,-0.08633094
5.236000,-0.07553957
5.240000,-0.06474820
5.244000,-0.05035971
5.248000,-0.06834532
5.252000,-0.04676259
5.256000,-0.04316547
5.260000,-0.02158273
5.264000,-0.02158273
5.268000,-0.01438849
5.272000,-0.01438849
5.276000,-0.01798561
5.280000,-0.01438849
5.284000,-0.01438849
5.288000,-0.01438849
5.292000,-0.00719424
5.296000,-0.00719424
5.300000,-0.01438849
5.304000,-0.00359712
5.308000,-0.02517986
5.312000,-0.00719424
5.316000,-0.02158273
5.320000,-0.00719424
5.324000,-0.00359712
5.328000,-0.01438849
5.332000,0.00000000
5.336000,0.01438849
5.340000,0.01438849
5.344000,0.01438849
5.348000,0.02877698
5.352000,0.03597122
5.356000,0.05395683
5.360000,0.08273381
5.364000,0.12230216
5.368000,0.16906475
5.372000,0.19424460
5.376000,0.21223022
5.380000,0.23741007
5.384000,0.24820144
5.388000,0.24100719
5.392000,0.24460432
5.396000,0.23021583
5.400000,0.19784173
5.404000,0.15467626
5.408000,0.10791367
5.412000,0.07553957
5.416000,0.02158273
5.420000,-0.00359712
5.424000,-0.03597122
5.428000,-0.04676259
5.432000,-0.07913669
5.436000,-0.07913669
5.440000,-0.06834532
5.444000,-0.06115108
5.448000,-0.05035971
5.452000,-0.06834532
5.456000,-0.05395683
5.460000,-0.05035971
5.464000,-0.05395683
5.468000,-0.05755396
5.472000,-0.05395683
5.476000,-0.06115108
5.480000,-0.05395683
5.484000,-0.05755396
5.488000,-0.03956835
5.492000,-0.06474820
5.496000,-0.03956835
5.500000,-0.04316547
5.504000,-0.03597122
5.508000,-0.03956835
5.512000,-0.02877698
5.516000,-0.02877698
5.520000,-0.04316547
5.524000,-0.03237410
5.528000,-0.03956835
5.532000,-0.03597122
5.536000,-0.02877698
5.540000,0.00359712
5.544000,0.03956835
5.548000,0.10431655
5.552000,0.15467626
5.556000,0.19784173
5.560000,0.23381295
5.564000,0.26978417
5.568000,0.28776978
5.572000,0.30215827
5.576000,0.31294964
5.580000,0.34172662
5.584000,0.38848921
5.588000,0.52158273
5.592000,0.71942446
5.596000,0.89928058
5.600000,0.93165468
5.604000,0.68705036
5.608000,0.32733813
5.612000,0.03237410
5.616000,-0.09352518
5.620000,-0.16546763
5.624000,-0.18705036
5.628000,-0.15467626
5.632000,-0.13669065
5.636000,-0.14388489
5.640000,-0.15467626
5.644000,-0.16546763
5.648000,-0.16906475
5.652000,-0.17266187
5.656000,-0.16546763
5.660000,-0.16187050
5.664000,-0.16546763
5.668000,-0.16187050
5.672000,-0.16187050
5.676000,-0.16187050
5.680000,-0.16187050
5.684000,-0.17625899
5.688000,-0.17985612
5.692000,-0.17985612
5.696000,-0.16906475
5.700000,-0.17266187
5.704000,-0.17266187
5.708000,-0.16187050
5.712000,-0.16546763
5.716000,-0.16546763
5.720000,-0.16906475
5.724000,-0.15827338
5.728000,-0.16187050
5.732000,-0.15467626
5.736000,-0.14748201
5.740000,-0.14748201
5.744000,-0.12589928
5.748000,-0.12589928
5.752000,-0.12589928
5.756000,-0.12589928
5.760000,-0.12230216
5.764000,-0.11510791
5.768000,-0.10071942
5.772000,-0.09352518
5.776000,-0.09352518
5.780000,-0.08992806
5.784000,-0.07194245
5.788000,-0.06115108
5.792000,-0.05755396
5.796000,-0.07194245
5.800000,-0.05755396
5.804000,-0.05755396
5.808000,-0.06834532
5.812000,-0.05755396
5.816000,-0.08992806
5.820000,-0.07194245
5.824000,-0.06834532
5.828000,-0.05755396
5.832000,-0.04676259
5.836000,-0.05395683
5.840000,-0.05035971
5.844000,-0.04316547
5.848000,-0.03597122
5.852000,-0.02877698
5.856000,-0.02158273
5.860000,-0.02517986
5.864000,-0.01438849
5.868000,-0.01438849
5.872000,-0.00359712
5.876000,0.00359712
5.880000,0.00000000
5.884000,0.02517986
5.888000,0.03597122
5.892000,0.05035971
5.896000,0.04676259
5.900000,0.04676259
5.904000,0.06115108
5.908000,0.09352518
5.912000,0.12230216
5.916000,0.15467626
5.920000,0.17625899
5.924000,0.19424460
5.928000,0.20143885
5.932000,0.20503597
5.936000,0.19784173
5.940000,0.20143885
5.944000,0.20143885
5.948000,0.17985612
5.952000,0.16187050
5.956000,0.11151079
5.960000,0.08273381
5.964000,0.02517986
5.968000,-0.01798561
5.972000,-0.03597122
5.976000,-0.07194245
5.980000,-0.09712230
5.984000,-0.11510791
5.988000,-0.09352518
5.992000,-0.08992806
5.996000,-0.06474820
6.000000,-0.07553957
6.004000,-0.06834532
6.008000,-0.06474820
6.012000,-0.05755396
6.016000,-0.04676259
6.020000,-0.05395683
6.024000,-0.05755396
6.028000,-0.06474820
6.032000,-0.05035971
6.036000,-0.05755396
6.040000,-0.05035971
6.044000,-0.05755396
6.048000,-0.05755396
6.052000,-0.04316547
6.056000,-0.05755396
6.060000,-0.06474820
6.064000,-0.06115108
6.068000,-0.05755396
6.072000,-0.05755396
6.076000,-0.06115108
6.080000,-0.06115108
6.084000,-0.05395683
6.088000,-0.03597122
6.092000,-0.00719424
6.096000,0.02158273
6.100000,0.07194245
6.104000,0.11151079
6.108000,0.16546763
6.112000,0.20143885
6.116000,0.24460432
6.120000,0.25899281
6.124000,0.26978417
6.128000,0.28057554
6.132000,0.30215827
6.136000,0.34172662
6.140000,0.48561151
6.144000,0.69424460
6.148000,0.87410072
6.152000,0.86690647
6.156000,0.61510791
6.160000,0.25899281
6.164000,-0.02158273
6.168000,-0.14748201
6.172000,-0.20143885
6.176000,-0.23381295
6.180000,-0.21942446
6.184000,-0.21223022
6.188000,-0.20863309
6.192000,-0.22302158
6.196000,-0.20503597
6.200000,-0.21582734
6.204000,-0.22661871
6.208000,-0.21223022
6.212000,-0.21582734
6.216000,-0.21223022
6.220000,-0.20503597
6.224000,-0.20143885
6.228000,-0.20143885
6.232000,-0.21582734
6.236000,-0.20863309
6.240000,-0.22302158
6.244000,-0.20863309
6.248000,-0.19424460
6.252000,-0.18705036
6.256000,-0.18705036
6.260000,-0.19064748
6.264000,-0.18345324
6.268000,-0.17266187
6.272000,-0.19064748
6.276000,-0.17266187
6.280000,-0.19424460
6.284000,-0.18345324
6.288000,-0.16906475
6.292000,-0.18345324
6.296000,-0.17985612
6.300000,-0.16546763
6.304000,-0.16546763
6.308000,-0.16906475
6.312000,-0.15827338
6.316000,-0.16187050
6.320000,-0.15827338
6.324000,-0.16187050
6.328000,-0.14748201
6.332000,-0.16187050
6.336000,-0.15827338
6.340000,-0.15467626
6.344000,-0.14388489
6.348000,-0.13309353
6.352000,-0.14028777
6.356000,-0.12230216
6.360000,-0.11510791
6.364000,-0.13309353
6.368000,-0.12589928
6.372000,-0.11510791
6.376000,-0.10431655
6.380000,-0.09352518
6.384000,-0.07913669
6.388000,-0.09352518
6.392000,-0.09352518
6.396000,-0.07553957
6.400000,-0.06834532
6.404000,-0.06115108
6.408000,-0.07194245
6.412000,-0.07194245
6.416000,-0.06474820
6.420000,-0.06115108
6.424000,-0.05395683
6.428000,-0.07913669
6.432000,-0.09712230
6.436000,-0.07913669
6.440000,-0.07194245
6.444000,-0.06834532
6.448000,-0.03956835
6.452000,-0.02158273
6.456000,-0.01798561
6.460000,-0.02158273
6.464000,-0.04676259
6.468000,-0.02517986
6.472000,-0.01438849
6.476000,0.00359712
6.480000,0.05035971
6.484000,0.07194245
6.488000,0.08633094
6.492000,0.10071942
6.496000,0.11510791
6.500000,0.15827338
6.504000,0.15827338
6.508000,0.14388489
6.512000,0.12230216
6.516000,0.11151079
6.520000,0.06474820
6.524000,0.01438849
6.528000,0.00000000
6.532000,-0.05755396
6.536000,-0.08992806
6.540000,-0.14388489
6.544000,-0.15827338
6.548000,-0.15827338
6.552000,-0.16187050
6.556000,-0.15107914
6.560000,-0.16187050
6.564000,-0.14748201
6.568000,-0.15467626
6.572000,-0.14748201
6.576000,-0.14388489
6.580000,-0.13309353
6.584000,-0.13669065
6.588000,-0.14028777
6.592000,-0.13309353
6.596000,-0.13669065
6.600000,-0.13669065
6.604000,-0.14028777
6.608000,-0.12230216
6.612000,-0.11870504
6.616000,-0.11510791
6.620000,-0.12230216
6.624000,-0.13309353
6.628000,-0.12230216
6.632000,-0.12589928
6.636000,-0.11151079
6.640000,-0.09352518
6.644000,-0.07913669
6.648000,-0.08273381
6.652000,-0.06115108
6.656000,-0.05035971
6.660000,-0.02158273
6.664000,0.02877698
6.668000,0.08992806
6.672000,0.15827338
6.676000,0.20863309
6.680000,0.25539568
6.684000,0.28057554
6.688000,0.31654676
6.692000,0.33453237
6.696000,0.35611511
6.700000,0.37769784
6.704000,0.46762590
6.708000,0.65107914
6.712000,0.81654676
6.716000,0.89568345
6.720000,0.73381295
6.724000,0.39928058
6.728000,0.09352518
6.732000,-0.06474820
6.736000,-0.13669065
6.740000,-0.19064748
6.744000,-0.20143885
6.748000,-0.16906475
6.752000,-0.17625899
6.756000,-0.17266187
6.760000,-0.17266187
6.764000,-0.18705036
6.768000,-0.19424460
6.772000,-0.17625899
6.776000,-0.16906475
6.780000,-0.17266187
6.784000,-0.17985612
6.788000,-0.19064748
6.792000,-0.18345324
6.796000,-0.16546763
6.800000,-0.16906475
6.804000,-0.19424460
6.808000,-0.17985612
6.812000,-0.18705036
6.816000,-0.19424460
6.820000,-0.18345324
6.824000,-0.17625899
6.828000,-0.18345324
6.832000,-0.17985612
6.836000,-0.16906475
6.840000,-0.17625899
6.844000,-0.17985612
6.848000,-0.17625899
6.852000,-0.15827338
6.856000,-0.15107914
6.860000,-0.15467626
6.864000,-0.14748201
6.868000,-0.15467626
6.872000,-0.14388489
6.876000,-0.14748201
6.880000,-0.12949640
6.884000,-0.10431655
6.888000,-0.08633094
6.892000,-0.08992806
6.896000,-0.10431655
6.900000,-0.10431655
6.904000,-0.10791367
6.908000,-0.11510791
6.912000,-0.12230216
6.916000,-0.10791367
6.920000,-0.10071942
6.924000,-0.08633094
6.928000,-0.08992806
6.932000,-0.08273381
6.936000,-0.08633094
6.940000,-0.10431655
6.944000,-0.10791367
6.948000,-0.08273381
6.952000,-0.09712230
6.956000,-0.08633094
6.960000,-0.08633094
6.964000,-0.07553957
6.968000,-0.07553957
6.972000,-0.07913669
6.976000,-0.06834532
6.980000,-0.06834532
6.984000,-0.07553957
6.988000,-0.07194245
6.992000,-0.06115108
6.996000,-0.05755396
7.000000,-0.04676259
7.004000,-0.03956835
7.008000,-0.03237410
7.012000,-0.01079137
7.016000,-0.00359712
7.020000,0.02158273
7.024000,0.02158273
7.028000,0.02158273
7.032000,0.04676259
7.036000,0.05035971
7.040000,0.08273381
7.044000,0.10071942
7.048000,0.12949640
7.052000,0.15467626
7.056000,0.15107914
7.060000,0.16187050
7.064000,0.16187050
7.068000,0.17625899
7.072000,0.17625899
7.076000,0.16187050
7.080000,0.12589928
7.084000,0.08992806
7.088000,0.04316547
7.092000,0.00719424
7.096000,-0.02877698
7.100000,-0.06115108
7.104000,-0.10071942
7.108000,-0.10431655
7.112000,-0.12589928
7.116000,-0.11151079
7.120000,-0.12230216
7.124000,-0.12589928
7.128000,-0.11510791
7.132000,-0.11510791
7.136000,-0.10791367
7.140000,-0.10071942
7.144000,-0.10071942
7.148000,-0.08273381
7.152000,-0.10431655
7.156000,-0.08992806
7.160000,-0.07913669
7.164000,-0.08273381
7.168000,-0.05755396
7.172000,-0.08273381
7.176000,-0.08633094
7.180000,-0.10071942
7.184000,-0.10791367
7.188000,-0.11151079
7.192000,-0.10431655
7.196000,-0.10791367
7.200000,-0.11151079
7.204000,-0.10791367
7.208000,-0.10431655
7.212000,-0.09352518
7.216000,-0.07194245
7.220000,-0.06115108
7.224000,-0.02877698
7.228000,0.00000000
7.232000,0.06115108
7.236000,0.12589928
7.240000,0.15467626
7.244000,0.17266187
7.248000,0.19424460
7.252000,0.21223022
7.256000,0.21223022
7.260000,0.22661871
7.264000,0.24820144
7.268000,0.34892086
7.272000,0.51079137
7.276000,0.73021583
7.280000,0.85251799
7.284000,0.76618705
7.288000,0.47122302
7.292000,0.11151079
7.296000,-0.09352518
7.300000,-0.18705036
7.304000,-0.24460432
7.308000,-0.25539568
7.312000,-0.23741007
7.316000,-0.23741007
7.320000,-0.24820144
7.324000,-0.24460432
7.328000,-0.25179856
7.332000,-0.23021583
7.336000,-0.23021583
7.340000,-0.23381295
7.344000,-0.25539568
7.348000,-0.23741007
7.352000,-0.23381295
7.356000,-0.24100719
7.360000,-0.23021583
7.364000,-0.24100719
7.368000,-0.23381295
7.372000,-0.24460432
7.376000,-0.23021583
7.380000,-0.23021583
7.384000,-0.22302158
7.388000,-0.21582734
7.392000,-0.20863309
7.396000,-0.20863309
7.400000,-0.21223022
7.404000,-0.21582734
7.408000,-0.21582734
7.412000,-0.21582734
7.416000,-0.20863309
7.420000,-0.20143885
7.424000,-0.19784173
7.428000,-0.19424460
7.432000,-0.21582734
7.436000,-0.20863309
7.440000,-0.20143885
7.444000,-0.18345324
7.448000,-0.19424460
7.452000,-0.17985612
7.456000,-0.16546763
7.460000,-0.16187050
7.464000,-0.15827338
7.468000,-0.15107914
7.472000,-0.16906475
7.476000,-0.15827338
7.480000,-0.13669065
7.484000,-0.14748201
7.488000,-0.14388489
7.492000,-0.13309353
7.496000,-0.13669065
7.500000,-0.14028777
7.504000,-0.15107914
7.508000,-0.14748201
7.512000,-0.13669065
7.516000,-0.12589928
7.520000,-0.11151079
7.524000,-0.12230216
7.528000,-0.10431655
7.532000,-0.08992806
7.536000,-0.08273381
7.540000,-0.08992806
7.544000,-0.07553957
7.548000,-0.09352518
7.552000,-0.08633094
7.556000,-0.08273381
7.560000,-0.07194245
7.564000,-0.07553957
7.568000,-0.06474820
7.572000,-0.07194245
7.576000,-0.03597122
7.580000,-0.03597122
7.584000,-0.02877698
7.588000,-0.00719424
7.592000,0.03597122
7.596000,0.07194245
7.600000,0.07194245
7.604000,0.09712230
7.608000,0.10431655
7.612000,0.12230216
7.616000,0.12949640
7.620000,0.14388489
7.624000,0.12230216
7.628000,0.09352518
7.632000,0.07194245
7.636000,0.03956835
7.640000,0.00000000
7.644000,-0.03597122
7.648000,-0.08633094
7.652000,-0.12230216
7.656000,-0.14028777
7.660000,-0.16546763
7.664000,-0.15827338
7.668000,-0.15467626
7.672000,-0.17266187
7.676000,-0.15827338
7.680000,-0.14748201
7.684000,-0.15107914
7.688000,-0.16187050
7.692000,-0.15467626
7.696000,-0.15107914
7.700000,-0.15467626
7.704000,-0.14388489
7.708000,-0.13669065
7.712000,-0.13669065
7.716000,-0.14028777
7.720000,-0.14748201
7.724000,-0.12949640
7.728000,-0.12589928
7.732000,-0.13309353
7.736000,-0.13669065
7.740000,-0.14388489
7.744000,-0.14388489
7.748000,-0.12230216
7.752000,-0.12949640
7.756000,-0.11510791
7.760000,-0.11870504
7.764000,-0.12230216
7.768000,-0.11510791
7.772000,-0.08633094
7.776000,-0.06115108
7.780000,-0.01079137
7.784000,0.04316547
7.788000,0.10791367
7.792000,0.16187050
7.796000,0.19784173
7.800000,0.22661871
7.804000,0.24100719
7.808000,0.25179856
7.812000,0.24820144
7.816000,0.26978417
7.820000,0.34172662
7.824000,0.47482014
7.828000,0.67266187
7.832000,0.80935252
7.836000,0.76258993
7.840000,0.48920863
7.844000,0.13669065
7.848000,-0.10431655
7.852000,-0.20143885
7.856000,-0.23741007
7.860000,-0.24820144
7.864000,-0.24820144
7.868000,-0.26258993
7.872000,-0.27338129
7.876000,-0.26258993
7.880000,-0.23741007
7.884000,-0.24460432
7.888000,-0.24460432
7.892000,-0.25899281
7.896000,-0.24820144
7.900000,-0.23381295
7.904000,-0.21942446
7.908000,-0.21942446
7.912000,-0.20863309
7.916000,-0.21582734
7.920000,-0.20143885
7.924000,-0.20863309
7.928000,-0.23021583
7.932000,-0.21942446
7.936000,-0.22661871
7.940000,-0.23021583
7.944000,-0.21582734
7.948000,-0.21942446
7.952000,-0.22661871
7.956000,-0.23021583
7.960000,-0.24460432
7.964000,-0.23381295
7.968000,-0.23741007
7.972000,-0.22302158
7.976000,-0.21942446
7.980000,-0.19784173
7.984000,-0.20503597
7.988000,-0.20503597
7.992000,-0.22302158
7.996000,-0.20863309
8.000000,-0.20863309
8.004000,-0.17985612
8.008000,-0.19424460
8.012000,-0.17985612
8.016000,-0.17985612
8.020000,-0.17266187
8.024000,-0.16546763
8.028000,-0.15827338
8.032000,-0.16546763
8.036000,-0.16187050
8.040000,-0.14388489
8.044000,-0.14028777
8.048000,-0.13309353
8.052000,-0.12949640
8.056000,-0.13669065
8.060000,-0.14388489
8.064000,-0.11510791
8.068000,-0.11870504
8.072000,-0.12949640
8.076000,-0.12230216
8.080000,-0.11510791
8.084000,-0.12589928
8.088000,-0.11151079
8.092000,-0.10071942
8.096000,-0.10791367
8.100000,-0.10431655
8.104000,-0.08992806
8.108000,-0.09712230
8.112000,-0.09352518
8.116000,-0.08273381
8.120000,-0.09352518
8.124000,-0.08992806
8.128000,-0.06474820
8.132000,-0.05755396
8.136000,-0.08273381
8.140000,-0.07913669
8.144000,-0.06115108
8.148000,-0.02517986
8.152000,-0.01438849
8.156000,-0.01438849
8.160000,-0.01079137
8.164000,0.00359712
8.168000,0.03956835
8.172000,0.07194245
8.176000,0.08992806
8.180000,0.10791367
8.184000,0.12589928
8.188000,0.14388489
8.192000,0.15467626
8.196000,0.15107914
8.200000,0.12949640
8.204000,0.08992806
8.208000,0.05035971
8.212000,0.00719424
8.216000,-0.04316547
8.220000,-0.10071942
8.224000,-0.12589928
8.228000,-0.15827338
8.232000,-0.17266187
8.236000,-0.17266187
8.240000,-0.17266187
8.244000,-0.17625899
8.248000,-0.17625899
8.252000,-0.17266187
8.256000,-0.15467626
8.260000,-0.14748201
8.264000,-0.16546763
8.268000,-0.17266187
8.272000,-0.17266187
8.276000,-0.15827338
8.280000,-0.15467626
8.284000,-0.14748201
8.288000,-0.12589928
8.292000,-0.12230216
8.296000,-0.13669065
8.300000,-0.14028777
8.304000,-0.12949640
8.308000,-0.13309353
8.312000,-0.14028777
8.316000,-0.12230216
8.320000,-0.12949640
8.324000,-0.12230216
8.328000,-0.13669065
8.332000,-0.14028777
8.336000,-0.13669065
8.340000,-0.12230216
8.344000,-0.08633094
8.348000,-0.05035971
8.352000,0.00000000
8.356000,0.03597122
8.360000,0.10071942
8.364000,0.15827338
8.368000,0.23741007
8.372000,0.26978417
8.376000,0.30575540
8.380000,0.30215827
8.384000,0.30935252
8.388000,0.32733813
8.392000,0.41726619
8.396000,0.58992806
8.400000,0.81654676
8.404000,0.90287770
8.408000,0.76258993
8.412000,0.42805755
8.416000,0.10791367
8.420000,-0.07553957
8.424000,-0.15827338
8.428000,-0.19784173
8.432000,-0.19784173
8.436000,-0.19784173
8.440000,-0.18705036
8.444000,-0.21223022
8.448000,-0.23021583
8.452000,-0.23741007
8.456000,-0.24820144
8.460000,-0.25179856
8.464000,-0.23381295
8.468000,-0.24460432
8.472000,-0.24820144
8.476000,-0.24460432
8.480000,-0.25179856
8.484000,-0.25179856
8.488000,-0.25179856
8.492000,-0.24820144
8.496000,-0.25899281
8.500000,-0.24460432
8.504000,-0.25179856
8.508000,-0.24820144
8.512000,-0.25539568
8.516000,-0.25539568
8.520000,-0.26258993
8.524000,-0.24100719
8.528000,-0.24100719
8.532000,-0.24820144
8.536000,-0.24100719
8.540000,-0.24820144
8.544000,-0.23021583
8.548000,-0.23021583
8.552000,-0.24820144
8.556000,-0.24460432
8.560000,-0.22302158
8.564000,-0.21223022
8.568000,-0.21223022
8.572000,-0.23021583
8.576000,-0.22661871
8.580000,-0.22661871
8.584000,-0.21942446
8.588000,-0.21582734
8.592000,-0.21582734
8.596000,-0.21223022
8.600000,-0.20143885
8.604000,-0.19424460
8.608000,-0.17625899
8.612000,-0.18345324
8.616000,-0.17266187
8.620000,-0.15467626
8.624000,-0.16906475
8.628000,-0.17985612
8.632000,-0.17266187
8.636000,-0.16546763
8.640000,-0.16546763
8.644000,-0.16546763
8.648000,-0.14388489
8.652000,-0.14028777
8.656000,-0.14028777
8.660000,-0.13669065
8.664000,-0.13669065
8.668000,-0.10071942
8.672000,-0.11510791
8.676000,-0.10431655
8.680000,-0.11870504
8.684000,-0.10431655
8.688000,-0.10071942
8.692000,-0.09352518
8.696000,-0.10431655
8.700000,-0.10431655
8.704000,-0.08992806
8.708000,-0.06834532
8.712000,-0.07194245
8.716000,-0.07913669
8.720000,-0.06474820
8.724000,-0.04316547
8.728000,-0.01438849
8.732000,0.02877698
8.736000,0.03956835
8.740000,0.05035971
8.744000,0.06115108
8.748000,0.08273381
8.752000,0.10431655
8.756000,0.12949640
8.760000,0.11510791
8.764000,0.10431655
8.768000,0.06115108
8.772000,0.03597122
8.776000,0.00000000
8.780000,-0.01438849
8.784000,-0.06474820
8.788000,-0.10071942
8.792000,-0.14388489
8.796000,-0.16546763
8.800000,-0.17266187
8.804000,-0.16546763
8.808000,-0.17625899
8.812000,-0.17266187
8.816000,-0.16906475
8.820000,-0.15827338
8.824000,-0.16906475
8.828000,-0.14388489
8.832000,-0.15467626
8.836000,-0.16187050
8.840000,-0.16187050
8.844000,-0.17625899
8.848000,-0.18705036
8.852000,-0.16187050
8.856000,-0.15467626
8.860000,-0.15467626
8.864000,-0.15107914
8.868000,-0.16906475
8.872000,-0.16187050
8.876000,-0.15467626
8.880000,-0.16546763
8.884000,-0.16546763
8.888000,-0.15827338
8.892000,-0.17266187
8.896000,-0.15107914
8.900000,-0.16187050
8.904000,-0.15107914
8.908000,-0.14388489
8.912000,-0.09352518
8.916000,-0.05035971
8.920000,0.00000000
8.924000,0.05035971
8.928000,0.08633094
8.932000,0.11870504
8.936000,0.14748201
8.940000,0.17985612
8.944000,0.19784173
8.948000,0.17625899
8.952000,0.19424460
8.956000,0.26258993
8.960000,0.40647482
8.964000,0.61151079
8.968000,0.79136691
8.972000,0.77338129
8.976000,0.53237410
8.980000,0.14748201
8.984000,-0.12230216
8.988000,-0.25179856
8.992000,-0.31654676
8.996000,-0.32733813
9.000000,-0.30215827
9.004000,-0.28417266
9.008000,-0.27697842
9.012000,-0.29496403
9.016000,-0.29496403
9.020000,-0.28057554
9.024000,-0.28417266
9.028000,-0.26258993
9.032000,-0.27697842
9.036000,-0.24460432
9.040000,-0.24820144
9.044000,-0.24100719
9.048000,-0.24460432
9.052000,-0.24820144
9.056000,-0.24100719
9.060000,-0.23741007
9.064000,-0.23741007
9.068000,-0.24460432
9.072000,-0.24460432
9.076000,-0.25899281
9.080000,-0.26618705
9.084000,-0.25899281
9.088000,-0.26258993
9.092000,-0.24100719
9.096000,-0.23741007
9.100000,-0.26978417
9.104000,-0.28417266
9.108000,-0.26978417
9.112000,-0.24820144
9.116000,-0.24460432
9.120000,-0.24820144
9.124000,-0.24100719
9.128000,-0.25539568
9.132000,-0.23021583
9.136000,-0.20863309
9.140000,-0.20863309
9.144000,-0.21223022
9.148000,-0.21582734
9.152000,-0.19784173
9.156000,-0.18705036
9.160000,-0.17985612
9.164000,-0.18705036
9.168000,-0.18345324
9.172000,-0.18345324
9.176000,-0.17985612
9.180000,-0.16187050
9.184000,-0.15467626
9.188000,-0.16906475
9.192000,-0.17985612
9.196000,-0.16546763
9.200000,-0.17985612
9.204000,-0.17625899
9.208000,-0.15467626
9.212000,-0.14388489
9.216000,-0.13309353
9.220000,-0.13669065
9.224000,-0.13669065
9.228000,-0.16187050
9.232000,-0.16187050
9.236000,-0.15467626
9.240000,-0.15107914
9.244000,-0.15467626
9.248000,-0.12949640
9.252000,-0.13669065
9.256000,-0.11870504
9.260000,-0.10791367
9.264000,-0.09352518
9.268000,-0.10791367
9.272000,-0.08633094
9.276000,-0.07553957
9.280000,-0.05395683
9.284000,-0.01438849
9.288000,0.03237410
9.292000,0.07553957
9.296000,0.08273381
9.300000,0.08633094
9.304000,0.11510791
9.308000,0.11510791
9.312000,0.10791367
9.316000,0.10431655
9.320000,0.07553957
9.324000,0.03597122
9.328000,0.00359712
9.332000,-0.04316547
9.336000,-0.07913669
9.340000,-0.12949640
9.344000,-0.16187050
9.348000,-0.19064748
9.352000,-0.22302158
9.356000,-0.23021583
9.360000,-0.23381295
9.364000,-0.23021583
9.368000,-0.24100719
9.372000,-0.23381295
9.376000,-0.22661871
9.380000,-0.23021583
9.384000,-0.20863309
9.388000,-0.21582734
9.392000,-0.20863309
9.396000,-0.20503597
9.400000,-0.20143885
9.404000,-0.20143885
9.408000,-0.20503597
9.412000,-0.19064748
9.416000,-0.19064748
9.420000,-0.19784173
9.424000,-0.19784173
9.428000,-0.20143885
9.432000,-0.19424460
9.436000,-0.19424460
9.440000,-0.19784173
9.444000,-0.18705036
9.448000,-0.17266187
9.452000,-0.18705036
9.456000,-0.20503597
9.460000,-0.20863309
9.464000,-0.18705036
9.468000,-0.14748201
9.472000,-0.08273381
9.476000,-0.02877698
9.480000,0.00719424
9.484000,0.04316547
9.488000,0.09352518
9.492000,0.14028777
9.496000,0.17625899
9.500000,0.19424460
9.504000,0.17625899
9.508000,0.19424460
9.512000,0.26978417
9.516000,0.44244604
9.520000,0.65467626
9.524000,0.74100719
9.528000,0.60791367
9.532000,0.27697842
9.536000,-0.03597122
9.540000,-0.20863309
9.544000,-0.28417266
9.548000,-0.33093525
9.552000,-0.32733813
9.556000,-0.31294964
9.560000,-0.29136691
9.564000,-0.29856115
9.568000,-0.30215827
9.572000,-0.30215827
9.576000,-0.30215827
9.580000,-0.29496403
9.584000,-0.28417266
9.588000,-0.28057554
9.592000,-0.29856115
9.596000,-0.30575540
9.600000,-0.29856115
9.604000,-0.27697842
9.608000,-0.29136691
9.612000,-0.30575540
9.616000,-0.31294964
9.620000,-0.30575540
9.624000,-0.29496403
9.628000,-0.30215827
9.632000,-0.30575540
9.636000,-0.29856115
9.640000,-0.30935252
9.644000,-0.31654676
9.648000,-0.30575540
9.652000,-0.29496403
9.656000,-0.29496403
9.660000,-0.30575540
9.664000,-0.30215827
9.668000,-0.30575540
9.672000,-0.28417266
9.676000,-0.26618705
9.680000,-0.24820144
9.684000,-0.23741007
9.688000,-0.24100719
9.692000,-0.23741007
9.696000,-0.23021583
9.700000,-0.24460432
9.704000,-0.23741007
9.708000,-0.22661871
9.712000,-0.21942446
9.716000,-0.23021583
9.720000,-0.21223022
9.724000,-0.19064748
9.728000,-0.20503597
9.732000,-0.20503597
9.736000,-0.21942446
9.740000,-0.20503597
9.744000,-0.18345324
9.748000,-0.18345324
9.752000,-0.20863309
9.756000,-0.20863309
9.760000,-0.19784173
9.764000,-0.18345324
9.768000,-0.17985612
9.772000,-0.15467626
9.776000,-0.13669065
9.780000,-0.15107914
9.784000,-0.13309353
9.788000,-0.12949640
9.792000,-0.13669065
9.796000,-0.13309353
9.800000,-0.12589928
9.804000,-0.12589928
9.808000,-0.10791367
9.812000,-0.10071942
9.816000,-0.09712230
9.820000,-0.08992806
9.824000,-0.07194245
9.828000,-0.07553957
9.832000,-0.07194245
9.836000,-0.08633094
9.840000,-0.07553957
9.844000,-0.05035971
9.848000,-0.02877698
9.852000,0.00000000
9.856000,0.02158273
9.860000,0.03237410
9.864000,0.05035971
9.868000,0.07913669
9.872000,0.09712230
9.876000,0.10071942
9.880000,0.10071942
9.884000,0.07553957
9.888000,0.06474820
9.892000,0.01438849
9.896000,-0.02517986
9.900000,-0.05755396
9.904000,-0.11510791
9.908000,-0.15107914
9.912000,-0.18705036
9.916000,-0.19064748
9.920000,-0.20863309
9.924000,-0.19064748
9.928000,-0.17985612
9.932000,-0.18345324
9.936000,-0.17266187
9.940000,-0.16187050
9.944000,-0.16546763
9.948000,-0.15107914
9.952000,-0.14028777
9.956000,-0.15827338
9.960000,-0.15107914
9.964000,-0.15827338
9.968000,-0.14028777
9.972000,-0.13309353
9.976000,-0.14748201
9.980000,-0.12949640
9.984000,-0.14748201
9.988000,-0.13669065
9.992000,-0.14388489
9.996000,-0.15107914
10.000000,-0.14748201
10.004000,-0.14388489
10.008000,-0.14388489
10.012000,-0.13309353
10.016000,-0.12949640
10.020000,-0.12230216
10.024000,-0.10431655
10.028000,-0.09352518
10.032000,-0.05395683
10.036000,-0.00719424
10.040000,0.05035971
10.044000,0.11510791
10.048000,0.16546763
10.052000,0.20863309
10.056000,0.25179856
10.060000,0.29496403
10.064000,0.32374101
10.068000,0.32733813
10.072000,0.33812950
10.076000,0.39928058
10.080000,0.57553957
10.084000,0.76978417
10.088000,0.89208633
10.092000,0.76618705
10.096000,0.42805755
10.100000,0.10431655
10.104000,-0.06474820
10.108000,-0.17266187
10.112000,-0.22302158
10.116000,-0.24460432
10.120000,-0.23381295
10.124000,-0.21582734
10.128000,-0.21942446
10.132000,-0.21942446
10.136000,-0.23021583
10.140000,-0.24460432
10.144000,-0.25899281
10.148000,-0.26258993
10.152000,-0.26258993
10.156000,-0.26258993
10.160000,-0.26258993
10.164000,-0.25179856
10.168000,-0.25179856
10.172000,-0.25179856
10.176000,-0.24460432
10.180000,-0.26258993
10.184000,-0.24460432
10.188000,-0.23741007
10.192000,-0.24460432
10.196000,-0.25539568
10.200000,-0.24100719
10.204000,-0.25539568
10.208000,-0.26618705
10.212000,-0.28057554
10.216000,-0.28057554
10.220000,-0.28057554
10.224000,-0.24820144
10.228000,-0.25179856
10.232000,-0.24460432
10.236000,-0.24100719
10.240000,-0.24100719
10.244000,-0.25539568
10.248000,-0.25899281
10.252000,-0.25179856
10.256000,-0.26258993
10.260000,-0.24460432
10.264000,-0.23381295
10.268000,-0.22302158
10.272000,-0.21942446
10.276000,-0.21223022
10.280000,-0.21582734
10.284000,-0.19784173
10.288000,-0.20863309
10.292000,-0.20143885
10.296000,-0.19424460
10.300000,-0.18705036
10.304000,-0.17266187
10.308000,-0.16906475
10.312000,-0.16906475
10.316000,-0.16546763
10.320000,-0.17625899
10.324000,-0.16906475
10.328000,-0.17985612
10.332000,-0.17625899
10.336000,-0.15107914
10.340000,-0.14748201
10.344000,-0.15107914
10.348000,-0.13669065
10.352000,-0.13309353
10.356000,-0.13669065
10.360000,-0.14388489
10.364000,-0.13309353
10.368000,-0.16187050
10.372000,-0.15467626
10.376000,-0.13669065
10.380000,-0.10791367
10.384000,-0.08633094
10.388000,-0.10071942
10.392000,-0.10071942
10.396000,-0.08273381
10.400000,-0.07553957
10.404000,-0.04316547
10.408000,-0.01798561
10.412000,0.02517986
10.416000,0.03956835
10.420000,0.04676259
10.424000,0.07913669
10.428000,0.09352518
10.432000,0.11151079
10.436000,0.10071942
10.440000,0.09712230
10.444000,0.05395683
10.448000,0.01079137
10.452000,-0.02517986
10.456000,-0.06115108
10.460000,-0.10791367
10.464000,-0.15107914
10.468000,-0.17625899
10.472000,-0.20503597
10.476000,-0.22661871
10.480000,-0.22302158
10.484000,-0.21942446
10.488000,-0.22302158
10.492000,-0.21582734
10.496000,-0.20863309
10.500000,-0.20863309
10.504000,-0.21223022
10.508000,-0.20863309
10.512000,-0.21582734
10.516000,-0.19424460
10.520000,-0.19424460
10.524000,-0.19424460
10.528000,-0.18345324
10.532000,-0.19784173
10.536000,-0.20863309
10.540000,-0.20503597
10.544000,-0.20863309
10.548000,-0.19064748
10.552000,-0.19064748
10.556000,-0.18705036
10.560000,-0.17625899
10.564000,-0.19424460
10.568000,-0.20143885
10.572000,-0.17266187
10.576000,-0.17266187
10.580000,-0.16906475
10.584000,-0.16187050
10.588000,-0.12589928
10.592000,-0.07913669
10.596000,-0.01079137
10.600000,0.03237410
10.604000,0.05395683
10.608000,0.07553957
10.612000,0.08992806
10.616000,0.10791367
10.620000,0.12589928
10.624000,0.13309353
10.628000,0.15467626
10.632000,0.23021583
10.636000,0.37769784
10.640000,0.58992806
10.644000,0.78057554
10.648000,0.74460432
10.652000,0.46402878
10.656000,0.09352518
10.660000,-0.16187050
10.664000,-0.28417266
10.668000,-0.34172662
10.672000,-0.35251799
10.676000,-0.34892086
10.680000,-0.32374101
10.684000,-0.30575540
10.688000,-0.30575540
10.692000,-0.28776978
10.696000,-0.28417266
10.700000,-0.28776978
10.704000,-0.29496403
10.708000,-0.29496403
10.712000,-0.30575540
10.716000,-0.29496403
10.720000,-0.28776978
10.724000,-0.28776978
10.728000,-0.28057554
10.732000,-0.28417266
10.736000,-0.29136691
10.740000,-0.29856115
10.744000,-0.28057554
10.748000,-0.28057554
10.752000,-0.28417266
10.756000,-0.29496403
10.760000,-0.29136691
10.764000,-0.28776978
10.768000,-0.29496403
10.772000,-0.28776978
10.776000,-0.27338129
10.780000,-0.28417266
10.784000,-0.26258993
10.788000,-0.26618705
10.792000,-0.28057554
10.796000,-0.25539568
10.800000,-0.25179856
10.804000,-0.24100719
10.808000,-0.23381295
10.812000,-0.23381295
10.816000,-0.23741007
10.820000,-0.21582734
10.824000,-0.21942446
10.828000,-0.21582734
10.832000,-0.20863309
10.836000,-0.20143885
10.840000,-0.20503597
10.844000,-0.18705036
10.848000,-0.17985612
10.852000,-0.18705036
10.856000,-0.19784173
10.860000,-0.20503597
10.864000,-0.19784173
10.868000,-0.18705036
10.872000,-0.19064748
10.876000,-0.17985612
10.880000,-0.17985612
10.884000,-0.17266187
10.888000,-0.18705036
10.892000,-0.16906475
10.896000,-0.17266187
10.900000,-0.16187050
10.904000,-0.15827338
10.908000,-0.15827338
10.912000,-0.17266187
10.916000,-0.15827338
10.920000,-0.12949640
10.924000,-0.12230216
10.928000,-0.12949640
10.932000,-0.10431655
10.936000,-0.07913669
10.940000,-0.05035971
10.944000,-0.05395683
10.948000,-0.06115108
10.952000,-0.03956835
10.956000,-0.01079137
10.960000,0.00719424
10.964000,0.04676259
10.968000,0.06474820
10.972000,0.06115108
10.976000,0.08992806
10.980000,0.09352518
10.984000,0.10071942
10.988000,0.07913669
10.992000,0.06474820
10.996000,0.01079137
11.000000,-0.02158273
11.004000,-0.05755396
11.008000,-0.10071942
11.012000,-0.14028777
11.016000,-0.17625899
11.020000,-0.20863309
11.024000,-0.23741007
11.028000,-0.23741007
11.032000,-0.21942446
11.036000,-0.23021583
11.040000,-0.23021583
11.044000,-0.23021583
11.048000,-0.20503597
11.052000,-0.20863309
11.056000,-0.19784173
11.060000,-0.20503597
11.064000,-0.19784173
11.068000,-0.17985612
11.072000,-0.17625899
11.076000,-0.19064748
11.080000,-0.17625899
11.084000,-0.17266187
11.088000,-0.18705036
11.092000,-0.18705036
11.096000,-0.17625899
11.100000,-0.17985612
11.104000,-0.17266187
11.108000,-0.17985612
11.112000,-0.19424460
11.116000,-0.19424460
11.120000,-0.17266187
11.124000,-0.16546763
11.128000,-0.17266187
11.132000,-0.15467626
11.136000,-0.15107914
11.140000,-0.11151079
11.144000,-0.08273381
11.148000,-0.01438849
11.152000,0.05035971
11.156000,0.08992806
11.160000,0.11151079
11.164000,0.14388489
11.168000,0.15107914
11.172000,0.16187050
11.176000,0.17625899
11.180000,0.21582734
11.184000,0.30935252
11.188000,0.48201439
11.192000,0.68345324
11.196000,0.79136691
11.200000,0.68345324
11.204000,0.34532374
11.208000,0.00000000
11.212000,-0.20503597
11.216000,-0.28417266
11.220000,-0.32014388
11.224000,-0.31654676
11.228000,-0.30575540
11.232000,-0.31654676
11.236000,-0.32014388
11.240000,-0.32374101
11.244000,-0.31654676
11.248000,-0.32014388
11.252000,-0.33453237
11.256000,-0.31654676
11.260000,-0.30935252
11.264000,-0.30575540
11.268000,-0.30575540
11.272000,-0.31294964
11.276000,-0.30575540
11.280000,-0.30935252
11.284000,-0.30215827
11.288000,-0.29856115
11.292000,-0.28776978
11.296000,-0.28417266
11.300000,-0.26618705
11.304000,-0.28417266
11.308000,-0.29856115
11.312000,-0.28776978
11.316000,-0.29496403
11.320000,-0.28417266
11.324000,-0.29136691
11.328000,-0.29496403
11.332000,-0.28417266
11.336000,-0.28776978
11.340000,-0.28417266
11.344000,-0.26618705
11.348000,-0.26258993
11.352000,-0.26258993
11.356000,-0.26978417
11.360000,-0.26618705
11.364000,-0.24100719
11.368000,-0.25179856
11.372000,-0.25179856
11.376000,-0.24100719
11.380000,-0.25179856
11.384000,-0.23021583
11.388000,-0.22302158
11.392000,-0.22661871
11.396000,-0.22302158
11.400000,-0.21942446
11.404000,-0.22302158
11.408000,-0.21223022
11.412000,-0.21223022
11.416000,-0.19064748
11.420000,-0.20503597
11.424000,-0.17985612
11.428000,-0.19784173
11.432000,-0.19784173
11.436000,-0.21582734
11.440000,-0.19064748
11.444000,-0.17266187
11.448000,-0.16546763
11.452000,-0.17625899
11.456000,-0.17625899
11.460000,-0.17625899
11.464000,-0.16906475
11.468000,-0.15107914
11.472000,-0.14388489
11.476000,-0.13669065
11.480000,-0.14748201
11.484000,-0.16906475
11.488000,-0.16187050
11.492000,-0.16546763
11.496000,-0.15467626
11.500000,-0.15467626
11.504000,-0.13669065
11.508000,-0.12230216
11.512000,-0.11151079
11.516000,-0.11870504
11.520000,-0.11870504
11.524000,-0.08273381
11.528000,-0.05035971
11.532000,-0.00719424
11.536000,0.00719424
11.540000,0.02517986
11.544000,0.02158273
11.548000,0.05755396
11.552000,0.08273381
11.556000,0.10071942
11.560000,0.10071942
11.564000,0.07194245
11.568000,0.02877698
11.572000,-0.01798561
11.576000,-0.06115108
11.580000,-0.09352518
11.584000,-0.13309353
11.588000,-0.17625899
11.592000,-0.21223022
11.596000,-0.23741007
11.600000,-0.23021583
11.604000,-0.24460432
11.608000,-0.22661871
11.612000,-0.21942446
11.616000,-0.21223022
11.620000,-0.20863309
11.624000,-0.21942446
11.628000,-0.22661871
11.632000,-0.21223022
11.636000,-0.20143885
11.640000,-0.19064748
11.644000,-0.20143885
11.648000,-0.20143885
11.652000,-0.19784173
11.656000,-0.19064748
11.660000,-0.20143885
11.664000,-0.17985612
11.668000,-0.18345324
11.672000,-0.17266187
11.676000,-0.19424460
11.680000,-0.17625899
11.684000,-0.17985612
11.688000,-0.18345324
11.692000,-0.16906475
11.696000,-0.16187050
11.700000,-0.16187050
11.704000,-0.15467626
11.708000,-0.12589928
11.712000,-0.08273381
11.716000,-0.03237410
11.720000,0.02158273
11.724000,0.06834532
11.728000,0.11870504
11.732000,0.18345324
11.736000,0.23021583
11.740000,0.24460432
11.744000,0.28057554
11.748000,0.28417266
11.752000,0.28776978
11.756000,0.38489209
11.760000,0.57553957
11.764000,0.76258993
11.768000,0.82374101
11.772000,0.65107914
11.776000,0.29856115
11.780000,0.00000000
11.784000,-0.17266187
11.788000,-0.23021583
11.792000,-0.24100719
11.796000,-0.23741007
11.800000,-0.23021583
11.804000,-0.24100719
11.808000,-0.26258993
11.812000,-0.26978417
11.816000,-0.26258993
11.820000,-0.26618705
11.824000,-0.25899281
11.828000,-0.25899281
11.832000,-0.25899281
11.836000,-0.25899281
11.840000,-0.25899281
11.844000,-0.26618705
11.848000,-0.25539568
11.852000,-0.26978417
11.856000,-0.29136691
11.860000,-0.26618705
11.864000,-0.26258993
11.868000,-0.27697842
11.872000,-0.24820144
11.876000,-0.26258993
11.880000,-0.26618705
11.884000,-0.26978417
11.888000,-0.25899281
11.892000,-0.26978417
11.896000,-0.26618705
11.900000,-0.26258993
11.904000,-0.25899281
11.908000,-0.24820144
11.912000,-0.25179856
11.916000,-0.24460432
11.920000,-0.22302158
11.924000,-0.23021583
11.928000,-0.21942446
11.932000,-0.19064748
11.936000,-0.20143885
11.940000,-0.19064748
11.944000,-0.18705036
11.948000,-0.18705036
11.952000,-0.19424460
11.956000,-0.19064748
11.960000,-0.18345324
11.964000,-0.16546763
11.968000,-0.16546763
11.972000,-0.17625899
11.976000,-0.18705036
11.980000,-0.17266187
11.984000,-0.16546763
11.988000,-0.16906475
11.992000,-0.17625899
11.996000,-0.17266187
12.000000,-0.16906475
12.004000,-0.15827338
12.008000,-0.14748201
12.012000,-0.14028777
12.016000,-0.13669065
12.020000,-0.13309353
12.024000,-0.13669065
12.028000,-0.13669065
12.032000,-0.11510791
12.036000,-0.11510791
12.040000,-0.10071942
12.044000,-0.10791367
12.048000,-0.10071942
12.052000,-0.09352518
12.056000,-0.10071942
12.060000,-0.08273381
12.064000,-0.06834532
12.068000,-0.07194245
12.072000,-0.05755396
12.076000,-0.05755396
12.080000,-0.04316547
12.084000,-0.04316547
12.088000,-0.01438849
12.092000,0.00719424
12.096000,0.04676259
12.100000,0.05395683
12.104000,0.06834532
12.108000,0.08633094
12.112000,0.10071942
12.116000,0.10071942
12.120000,0.11510791
12.124000,0.08992806
12.128000,0.05755396
12.132000,0.01798561
12.136000,-0.00719424
12.140000,-0.06834532
12.144000,-0.10431655
12.148000,-0.13309353
12.152000,-0.16546763
12.156000,-0.17985612
12.160000,-0.19064748
12.164000,-0.19064748
12.168000,-0.19064748
12.172000,-0.18345324
12.176000,-0.17266187
12.180000,-0.16546763
12.184000,-0.15827338
12.188000,-0.15107914
12.192000,-0.17625899
12.196000,-0.16906475
12.200000,-0.16906475
12.204000,-0.17266187
12.208000,-0.18345324
12.212000,-0.17625899
12.216000,-0.18705036
12.220000,-0.18345324
12.224000,-0.17985612
12.228000,-0.18705036
12.232000,-0.18345324
12.236000,-0.19064748
12.240000,-0.18705036
12.244000,-0.17266187
12.248000,-0.16187050
12.252000,-0.16546763
12.256000,-0.16187050
12.260000,-0.16187050
12.264000,-0.17266187
12.268000,-0.15107914
12.272000,-0.10071942
12.276000,-0.06474820
12.280000,0.00719424
12.284000,0.05755396
12.288000,0.10431655
12.292000,0.13309353
12.296000,0.15827338
12.300000,0.16906475
12.304000,0.17266187
12.308000,0.15467626
12.312000,0.17625899
12.316000,0.28417266
12.320000,0.44604317
12.324000,0.65827338
12.328000,0.79136691
12.332000,0.71942446
12.336000,0.42446043
12.340000,0.07194245
12.344000,-0.15827338
12.348000,-0.26258993
12.352000,-0.31654676
12.356000,-0.33453237
12.360000,-0.30215827
12.364000,-0.29856115
12.368000,-0.29856115
12.372000,-0.31654676
12.376000,-0.30935252
12.380000,-0.30935252
12.384000,-0.30215827
12.388000,-0.29136691
12.392000,-0.29136691
12.396000,-0.31294964
12.400000,-0.30215827
12.404000,-0.30575540
12.408000,-0.28417266
12.412000,-0.28776978
12.416000,-0.30575540
12.420000,-0.29856115
12.424000,-0.28776978
12.428000,-0.28057554
12.432000,-0.29496403
12.436000,-0.28776978
12.440000,-0.28776978
12.444000,-0.29136691
12.448000,-0.29856115
12.452000,-0.28417266
12.456000,-0.28417266
12.460000,-0.29496403
12.464000,-0.30575540
12.468000,-0.29136691
12.472000,-0.29856115
12.476000,-0.28776978
12.480000,-0.28417266
12.484000,-0.27338129
12.488000,-0.26618705
12.492000,-0.26618705
12.496000,-0.26978417
12.500000,-0.25179856
12.504000,-0.24820144
12.508000,-0.24460432
12.512000,-0.24100719
12.516000,-0.23021583
12.520000,-0.24460432
12.524000,-0.22661871
12.528000,-0.21942446
12.532000,-0.21942446
12.536000,-0.20503597
12.540000,-0.20863309
12.544000,-0.19784173
12.548000,-0.19424460
12.552000,-0.20503597
12.556000,-0.20143885
12.560000,-0.18705036
12.564000,-0.17985612
12.568000,-0.17985612
12.572000,-0.18345324
12.576000,-0.18705036
12.580000,-0.17985612
12.584000,-0.17625899
12.588000,-0.16546763
12.592000,-0.17625899
12.596000,-0.18345324
12.600000,-0.17266187
12.604000,-0.16546763
12.608000,-0.16187050
12.612000,-0.14748201
12.616000,-0.11870504
12.620000,-0.10431655
12.624000,-0.11510791
12.628000,-0.11510791
12.632000,-0.09352518
12.636000,-0.07194245
12.640000,-0.03597122
12.644000,0.01079137
12.648000,0.01438849
12.652000,0.02517986
12.656000,0.03956835
12.660000,0.07553957
12.664000,0.08633094
12.668000,0.07553957
12.672000,0.05035971
12.676000,0.01798561
12.680000,-0.01438849
12.684000,-0.07194245
12.688000,-0.11151079
12.692000,-0.14748201
12.696000,-0.17625899
12.700000,-0.22302158
12.704000,-0.23741007
12.708000,-0.24100719
12.712000,-0.25539568
12.716000,-0.26258993
12.720000,-0.25179856
12.724000,-0.24100719
12.728000,-0.23021583
12.732000,-0.23741007
12.736000,-0.23021583
12.740000,-0.23021583
12.744000,-0.23381295
12.748000,-0.21942446
12.752000,-0.22302158
12.756000,-0.20863309
12.760000,-0.20863309
12.764000,-0.22661871
12.768000,-0.22661871
12.772000,-0.21223022
12.776000,-0.19424460
12.780000,-0.17985612
12.784000,-0.18705036
12.788000,-0.17985612
12.792000,-0.18705036
12.796000,-0.17985612
12.800000,-0.18345324
12.804000,-0.17266187
12.808000,-0.17266187
12.812000,-0.17266187
12.816000,-0.16187050
12.820000,-0.14748201
12.824000,-0.09712230
12.828000,-0.03597122
12.832000,0.02517986
12.836000,0.07913669
12.840000,0.12230216
12.844000,0.14748201
12.848000,0.17625899
12.852000,0.18345324
12.856000,0.19784173
12.860000,0.21582734
12.864000,0.26978417
12.868000,0.40287770
12.872000,0.59712230
12.876000,0.75899281
12.880000,0.75179856
12.884000,0.47841727
12.888000,0.13309353
12.892000,-0.11151079
12.896000,-0.24460432
12.900000,-0.30215827
12.904000,-0.30575540
12.908000,-0.28776978
12.912000,-0.29136691
12.916000,-0.29496403
12.920000,-0.28776978
12.924000,-0.30215827
12.928000,-0.28776978
12.932000,-0.28776978
12.936000,-0.28417266
12.940000,-0.29856115
12.944000,-0.29496403
12.948000,-0.30215827
12.952000,-0.28057554
12.956000,-0.28776978
12.960000,-0.30215827
12.964000,-0.30215827
12.968000,-0.29856115
12.972000,-0.29496403
12.976000,-0.28776978
12.980000,-0.28776978
12.984000,-0.30935252
12.988000,-0.30935252
12.992000,-0.30215827
12.996000,-0.28776978
13.000000,-0.29136691
13.004000,-0.27338129
13.008000,-0.28417266
13.012000,-0.29856115
13.016000,-0.29136691
13.020000,-0.29136691
13.024000,-0.26978417
13.028000,-0.26978417
13.032000,-0.26258993
13.036000,-0.26978417
13.040000,-0.25899281
13.044000,-0.24820144
13.048000,-0.23021583
13.052000,-0.22302158
13.056000,-0.22661871
13.060000,-0.22661871
13.064000,-0.21223022
13.068000,-0.22302158
13.072000,-0.21223022
13.076000,-0.21223022
13.080000,-0.21582734
13.084000,-0.21223022
13.088000,-0.20503597
13.092000,-0.20143885
13.096000,-0.21223022
13.100000,-0.19784173
13.104000,-0.18705036
13.108000,-0.18705036
13.112000,-0.17985612
13.116000,-0.17266187
13.120000,-0.16906475
13.124000,-0.17985612
13.128000,-0.19064748
13.132000,-0.18345324
13.136000,-0.16187050
13.140000,-0.14748201
13.144000,-0.14748201
13.148000,-0.14028777
13.152000,-0.14388489
13.156000,-0.14748201
13.160000,-0.13309353
13.164000,-0.13309353
13.168000,-0.11510791
13.172000,-0.11870504
13.176000,-0.11510791
13.180000,-0.08273381
13.184000,-0.08992806
13.188000,-0.08273381
13.192000,-0.07913669
13.196000,-0.05755396
13.200000,-0.06115108
13.204000,-0.02517986
13.208000,0.00359712
13.212000,0.04316547
13.216000,0.04316547
13.220000,0.06834532
13.224000,0.07913669
13.228000,0.06834532
13.232000,0.08992806
13.236000,0.08273381
13.240000,0.06834532
13.244000,0.03956835
13.248000,0.00000000
13.252000,-0.05035971
13.256000,-0.09352518
13.260000,-0.12589928
13.264000,-0.16906475
13.268000,-0.19784173
13.272000,-0.20863309
13.276000,-0.21942446
13.280000,-0.22661871
13.284000,-0.21582734
13.288000,-0.20143885
13.292000,-0.20863309
13.296000,-0.21223022
13.300000,-0.20503597
13.304000,-0.19784173
13.308000,-0.19424460
13.312000,-0.19424460
13.316000,-0.20143885
13.320000,-0.18705036
13.324000,-0.17985612
13.328000,-0.17985612
13.332000,-0.18345324
13.336000,-0.19424460
13.340000,-0.19784173
13.344000,-0.18345324
13.348000,-0.17266187
13.352000,-0.18345324
13.356000,-0.18345324
13.360000,-0.19424460
13.364000,-0.19064748
13.368000,-0.19424460
13.372000,-0.18345324
13.376000,-0.17625899
13.380000,-0.17985612
13.384000,-0.16546763
13.388000,-0.11151079
13.392000,-0.05395683
13.396000,0.00719424
13.400000,0.07553957
13.404000,0.13309353
13.408000,0.18345324
13.412000,0.20863309
13.416000,0.21582734
13.420000,0.24460432
13.424000,0.24460432
13.428000,0.25539568
13.432000,0.35611511
13.436000,0.54676259
13.440000,0.73381295
13.444000,0.80215827
13.448000,0.62589928
13.452000,0.29136691
13.456000,-0.00359712
13.460000,-0.19064748
13.464000,-0.25899281
13.468000,-0.29136691
13.472000,-0.30575540
13.476000,-0.29856115
13.480000,-0.30575540
13.484000,-0.33093525
13.488000,-0.35251799
13.492000,-0.33093525
13.496000,-0.32733813
13.500000,-0.32733813
13.504000,-0.30935252
13.508000,-0.31654676
13.512000,-0.33453237
13.516000,-0.32374101
13.520000,-0.32374101
13.524000,-0.32374101
13.528000,-0.30575540
13.532000,-0.30215827
13.536000,-0.30935252
13.540000,-0.31294964
13.544000,-0.31654676
13.548000,-0.33093525
13.552000,-0.32733813
13.556000,-0.32733813
13.560000,-0.30935252
13.564000,-0.30575540
13.568000,-0.31654676
13.572000,-0.32733813
13.576000,-0.31654676
13.580000,-0.32733813
13.584000,-0.33093525
13.588000,-0.33812950
13.592000,-0.32733813
13.596000,-0.30935252
13.600000,-0.30215827
13.604000,-0.29496403
13.608000,-0.28776978
13.612000,-0.27697842
13.616000,-0.27338129
13.620000,-0.25539568
13.624000,-0.26978417
13.628000,-0.25899281
13.632000,-0.26258993
13.636000,-0.25539568
13.640000,-0.23741007
13.644000,-0.24820144
13.648000,-0.22661871
13.652000,-0.21223022
13.656000,-0.19064748
13.660000,-0.21582734
13.664000,-0.20863309
13.668000,-0.19784173
13.672000,-0.19064748
13.676000,-0.18705036
13.680000,-0.17985612
13.684000,-0.19064748
13.688000,-0.19424460
13.692000,-0.19424460
13.696000,-0.18705036
13.700000,-0.17985612
13.704000,-0.17625899
13.708000,-0.17625899
13.712000,-0.16187050
13.716000,-0.17625899
13.720000,-0.17985612
13.724000,-0.17985612
13.728000,-0.17266187
13.732000,-0.16906475
13.736000,-0.15467626
13.740000,-0.13669065
13.744000,-0.12230216
13.748000,-0.11151079
13.752000,-0.08992806
13.756000,-0.08273381
13.760000,-0.03237410
13.764000,-0.00719424
13.768000,0.01798561
13.772000,0.01798561
13.776000,0.04316547
13.780000,0.06834532
13.784000,0.07553957
13.788000,0.07194245
13.792000,0.06834532
13.796000,0.05395683
13.800000,0.02158273
13.804000,-0.02158273
13.808000,-0.06474820
13.812000,-0.11151079
13.816000,-0.15467626
13.820000,-0.18705036
13.824000,-0.19784173
13.828000,-0.23021583
13.832000,-0.23741007
13.836000,-0.25179856
13.840000,-0.25539568
13.844000,-0.24820144
13.848000,-0.23741007
13.852000,-0.23741007
13.856000,-0.23021583
13.860000,-0.21942446
13.864000,-0.21942446
13.868000,-0.20863309
13.872000,-0.20503597
13.876000,-0.20503597
13.880000,-0.19424460
13.884000,-0.19424460
13.888000,-0.20863309
13.892000,-0.20503597
13.896000,-0.20503597
13.900000,-0.17985612
13.904000,-0.17625899
13.908000,-0.18705036
13.912000,-0.17985612
13.916000,-0.18705036
13.920000,-0.19424460
13.924000,-0.19784173
13.928000,-0.17266187
13.932000,-0.18345324
13.936000,-0.17625899
13.940000,-0.16906475
13.944000,-0.14748201
13.948000,-0.09712230
13.952000,-0.03597122
13.956000,0.01079137
13.960000,0.04316547
13.964000,0.08633094
13.968000,0.11151079
13.972000,0.10431655
13.976000,0.10071942
13.980000,0.12230216
13.984000,0.14388489
13.988000,0.22661871
13.992000,0.41366906
13.996000,0.62589928
14.000000,0.76618705
14.004000,0.68705036
14.008000,0.38129496
14.012000,0.02517986
14.016000,-0.20503597
14.020000,-0.30215827
14.024000,-0.34892086
14.028000,-0.35971223
14.032000,-0.33812950
14.036000,-0.31294964
14.040000,-0.32014388
14.044000,-0.32733813
14.048000,-0.31654676
14.052000,-0.30935252
14.056000,-0.30935252
14.060000,-0.30575540
14.064000,-0.30935252
14.068000,-0.30575540
14.072000,-0.29496403
14.076000,-0.29136691
14.080000,-0.29136691
14.084000,-0.32014388
14.088000,-0.33093525
14.092000,-0.31654676
14.096000,-0.31654676
14.100000,-0.32374101
14.104000,-0.33453237
14.108000,-0.33093525
14.112000,-0.31294964
14.116000,-0.32014388
14.120000,-0.32014388
14.124000,-0.30935252
14.128000,-0.32733813
14.132000,-0.33093525
14.136000,-0.32014388
14.140000,-0.30935252
14.144000,-0.29496403
14.148000,-0.28057554
14.152000,-0.28057554
14.156000,-0.26978417
14.160000,-0.24820144
14.164000,-0.25179856
14.168000,-0.26258993
14.172000,-0.24460432
14.176000,-0.24100719
14.180000,-0.24460432
14.184000,-0.24460432
14.188000,-0.22661871
14.192000,-0.21942446
14.196000,-0.22661871
14.200000,-0.23021583
14.204000,-0.22661871
14.208000,-0.23021583
14.212000,-0.21942446
14.216000,-0.22302158
14.220000,-0.21582734
14.224000,-0.22302158
14.228000,-0.21942446
14.232000,-0.22661871
14.236000,-0.23021583
14.240000,-0.23021583
14.244000,-0.21223022
14.248000,-0.20143885
14.252000,-0.20143885
14.256000,-0.19064748
14.260000,-0.20503597
14.264000,-0.19424460
14.268000,-0.16906475
14.272000,-0.15827338
14.276000,-0.17985612
14.280000,-0.16546763
14.284000,-0.14388489
14.288000,-0.11510791
14.292000,-0.12949640
14.296000,-0.14028777
14.300000,-0.13309353
14.304000,-0.10791367
14.308000,-0.08633094
14.312000,-0.03956835
14.316000,-0.01798561
14.320000,0.00000000
14.324000,0.01079137
14.328000,0.01079137
14.332000,0.01079137
14.336000,0.01438849
14.340000,0.01079137
14.344000,0.00000000
14.348000,-0.01438849
14.352000,-0.05035971
14.356000,-0.09712230
14.360000,-0.14028777
14.364000,-0.18345324
14.368000,-0.21942446
14.372000,-0.26258993
14.376000,-0.28776978
14.380000,-0.29136691
14.384000,-0.29856115
14.388000,-0.30575540
14.392000,-0.29496403
14.396000,-0.27338129
14.400000,-0.26258993
14.404000,-0.26258993
14.408000,-0.26258993
14.412000,-0.24460432
14.416000,-0.23021583
14.420000,-0.24460432
14.424000,-0.26258993
14.428000,-0.25179856
14.432000,-0.25179856
14.436000,-0.24460432
14.440000,-0.24820144
14.444000,-0.23741007
14.448000,-0.23021583
14.452000,-0.26258993
14.456000,-0.27697842
14.460000,-0.26618705
14.464000,-0.25539568
14.468000,-0.24820144
14.472000,-0.24460432
14.476000,-0.24460432
14.480000,-0.23741007
14.484000,-0.21942446
14.488000,-0.19784173
14.492000,-0.19784173
14.496000,-0.15827338
14.500000,-0.11151079
14.504000,-0.05035971
14.508000,0.01438849
14.512000,0.07553957
14.516000,0.11870504
14.520000,0.15467626
14.524000,0.15827338
14.528000,0.16906475
14.532000,0.19424460
14.536000,0.22302158
14.540000,0.32374101
14.544000,0.52158273
14.548000,0.68345324
14.552000,0.69064748
14.556000,0.43884892
14.560000,0.11151079
14.564000,-0.13669065
14.568000,-0.27338129
14.572000,-0.35971223
14.576000,-0.35971223
14.580000,-0.35971223
14.584000,-0.34172662
14.588000,-0.34532374
14.592000,-0.35971223
14.596000,-0.36330935
14.600000,-0.36690647
14.604000,-0.35611511
14.608000,-0.35251799
14.612000,-0.35971223
14.616000,-0.37050360
14.620000,-0.37050360
14.624000,-0.37769784
14.628000,-0.37769784
14.632000,-0.36330935
14.636000,-0.36330935
14.640000,-0.35251799
14.644000,-0.35611511
14.648000,-0.34532374
14.652000,-0.35971223
14.656000,-0.36330935
14.660000,-0.36330935
14.664000,-0.34532374
14.668000,-0.35251799
14.672000,-0.33812950
14.676000,-0.34532374
14.680000,-0.34532374
14.684000,-0.33812950
14.688000,-0.34532374
14.692000,-0.34532374
14.696000,-0.33453237
14.700000,-0.33812950
14.704000,-0.33812950
14.708000,-0.33453237
14.712000,-0.33093525
14.716000,-0.32374101
14.720000,-0.32733813
14.724000,-0.31294964
14.728000,-0.30575540
14.732000,-0.28057554
14.736000,-0.28776978
14.740000,-0.28776978
14.744000,-0.27697842
14.748000,-0.25539568
14.752000,-0.26618705
14.756000,-0.28776978
14.760000,-0.26978417
14.764000,-0.24460432
14.768000,-0.24820144
14.772000,-0.25179856
14.776000,-0.24460432
14.780000,-0.22661871
14.784000,-0.21582734
14.788000,-0.21223022
14.792000,-0.20143885
14.796000,-0.21582734
14.800000,-0.21942446
14.804000,-0.20503597
14.808000,-0.19064748
14.812000,-0.20863309
14.816000,-0.21223022
14.820000,-0.20143885
14.824000,-0.21582734
14.828000,-0.19784173
14.832000,-0.20143885
14.836000,-0.17266187
14.840000,-0.17985612
14.844000,-0.19064748
14.848000,-0.16187050
14.852000,-0.16906475
14.856000,-0.15107914
14.860000,-0.14748201
14.864000,-0.14748201
14.868000,-0.12589928
14.872000,-0.11151079
14.876000,-0.09352518
14.880000,-0.06834532
14.884000,-0.03597122
14.888000,0.01079137
14.892000,0.02158273
14.896000,0.04316547
14.900000,0.04676259
14.904000,0.07553957
14.908000,0.06834532
14.912000,0.08633094
14.916000,0.05395683
14.920000,0.02158273
14.924000,-0.01798561
14.928000,-0.06834532
14.932000,-0.09712230
14.936000,-0.15107914
14.940000,-0.19424460
14.944000,-0.21942446
14.948000,-0.23021583
14.952000,-0.23741007
14.956000,-0.24100719
14.960000,-0.23741007
14.964000,-0.23021583
14.968000,-0.22661871
14.972000,-0.22661871
14.976000,-0.20863309
14.980000,-0.20863309
14.984000,-0.21942446
14.988000,-0.22302158
14.992000,-0.21223022
14.996000,-0.21582734
15.000000,-0.20863309
15.004000,-0.18705036
15.008000,-0.17985612
15.012000,-0.17266187
15.016000,-0.17266187
15.020000,-0.18345324
15.024000,-0.18705036
15.028000,-0.18345324
15.032000,-0.17985612
15.036000,-0.18345324
15.040000,-0.16906475
15.044000,-0.17985612
15.048000,-0.16546763
15.052000,-0.15467626
15.056000,-0.14028777
15.060000,-0.11510791
15.064000,-0.07553957
15.068000,-0.02877698
15.072000,0.02877698
15.076000,0.07913669
15.080000,0.12949640
15.084000,0.16187050
15.088000,0.18705036
15.092000,0.21582734
15.096000,0.21942446
15.100000,0.23741007
15.104000,0.31294964
15.108000,0.45683453
15.112000,0.67266187
15.116000,0.80215827
15.120000,0.71582734
15.124000,0.40647482
15.128000,0.05755396
15.132000,-0.14028777
15.136000,-0.25539568
15.140000,-0.29496403
15.144000,-0.30575540
15.148000,-0.30215827
15.152000,-0.28057554
15.156000,-0.31654676
15.160000,-0.31654676
15.164000,-0.30935252
15.168000,-0.30935252
15.172000,-0.29496403
15.176000,-0.30575540
15.180000,-0.31294964
15.184000,-0.31654676
15.188000,-0.31654676
15.192000,-0.34532374
15.196000,-0.33093525
15.200000,-0.34172662
15.204000,-0.33453237
15.208000,-0.33093525
15.212000,-0.33453237
15.216000,-0.33093525
15.220000,-0.32374101
15.224000,-0.33812950
15.228000,-0.33453237
15.232000,-0.33453237
15.236000,-0.33453237
15.240000,-0.33812950
15.244000,-0.33453237
15.248000,-0.33453237
15.252000,-0.33093525
15.256000,-0.31654676
15.260000,-0.30575540
15.264000,-0.30215827
15.268000,-0.30215827
15.272000,-0.29496403
15.276000,-0.29496403
15.280000,-0.28776978
15.284000,-0.28776978
15.288000,-0.28057554
15.292000,-0.26618705
15.296000,-0.25899281
15.300000,-0.26258993
15.304000,-0.25539568
15.308000,-0.25539568
15.312000,-0.26258993
15.316000,-0.26618705
15.320000,-0.25899281
15.324000,-0.26258993
15.328000,-0.25899281
15.332000,-0.25179856
15.336000,-0.24460432
15.340000,-0.25179856
15.344000,-0.25899281
15.348000,-0.22661871
15.352000,-0.23381295
15.356000,-0.22302158
15.360000,-0.21582734
15.364000,-0.21942446
15.368000,-0.21582734
15.372000,-0.21223022
15.376000,-0.20863309
15.380000,-0.20143885
15.384000,-0.19424460
15.388000,-0.19784173
15.392000,-0.18345324
15.396000,-0.16546763
15.400000,-0.16187050
15.404000,-0.16546763
15.408000,-0.15107914
15.412000,-0.13669065
15.416000,-0.13309353
15.420000,-0.13309353
15.424000,-0.10791367
15.428000,-0.05755396
15.432000,-0.03956835
15.436000,-0.02877698
15.440000,-0.01798561
15.444000,-0.01079137
15.448000,0.00359712
15.452000,0.02517986
15.456000,0.03237410
15.460000,0.01438849
15.464000,0.00359712
15.468000,-0.03237410
15.472000,-0.05755396
15.476000,-0.10071942
15.480000,-0.14748201
15.484000,-0.18345324
15.488000,-0.21582734
15.492000,-0.24460432
15.496000,-0.25899281
15.500000,-0.26618705
15.504000,-0.26258993
15.508000,-0.26258993
15.512000,-0.25539568
15.516000,-0.25179856
15.520000,-0.25539568
15.524000,-0.24100719
15.528000,-0.24100719
15.532000,-0.23741007
15.536000,-0.24100719
15.540000,-0.24460432
15.544000,-0.23741007
15.548000,-0.24820144
15.552000,-0.25179856
15.556000,-0.25539568
15.560000,-0.24820144
15.564000,-0.23741007
15.568000,-0.26618705
15.572000,-0.28057554
15.576000,-0.25899281
15.580000,-0.25899281
15.584000,-0.24460432
15.588000,-0.24820144
15.592000,-0.24460432
15.596000,-0.25179856
15.600000,-0.23741007
15.604000,-0.22302158
15.608000,-0.20503597
15.612000,-0.17266187
15.616000,-0.12949640
15.620000,-0.08633094
15.624000,-0.03597122
15.628000,0.01438849
15.632000,0.05395683
15.636000,0.08992806
15.640000,0.10791367
15.644000,0.08273381
15.648000,0.10071942
15.652000,0.13309353
15.656000,0.24460432
15.660000,0.42446043
15.664000,0.63669065
15.668000,0.74100719
15.672000,0.62230216
15.676000,0.28417266
15.680000,-0.03237410
15.684000,-0.23021583
15.688000,-0.32374101
15.692000,-0.38489209
15.696000,-0.39208633
15.700000,-0.36690647
15.704000,-0.35611511
15.708000,-0.35611511
15.712000,-0.35611511
15.716000,-0.35611511
15.720000,-0.33093525
15.724000,-0.33093525
15.728000,-0.34172662
15.732000,-0.33812950
15.736000,-0.33093525
15.740000,-0.33093525
15.744000,-0.33453237
15.748000,-0.34172662
15.752000,-0.32374101
15.756000,-0.30215827
15.760000,-0.30575540
15.764000,-0.33093525
15.768000,-0.31294964
15.772000,-0.31654676
15.776000,-0.31294964
15.780000,-0.30215827
15.784000,-0.30935252
15.788000,-0.30935252
15.792000,-0.30575540
15.796000,-0.31654676
15.800000,-0.29856115
15.804000,-0.31654676
15.808000,-0.32374101
15.812000,-0.31654676
15.816000,-0.30215827
15.820000,-0.30215827
15.824000,-0.30575540
15.828000,-0.30575540
15.832000,-0.28057554
15.836000,-0.26618705
15.840000,-0.25899281
15.844000,-0.26258993
15.848000,-0.26258993
15.852000,-0.24460432
15.856000,-0.24460432
15.860000,-0.24820144
15.864000,-0.23021583
15.868000,-0.24100719
15.872000,-0.22661871
15.876000,-0.21942446
15.880000,-0.21582734
15.884000,-0.20143885
15.888000,-0.20143885
15.892000,-0.19424460
15.896000,-0.20143885
15.900000,-0.19424460
15.904000,-0.19424460
15.908000,-0.20503597
15.912000,-0.19424460
15.916000,-0.18345324
15.920000,-0.17266187
15.924000,-0.17985612
15.928000,-0.18705036
15.932000,-0.17625899
15.936000,-0.17266187
15.940000,-0.17266187
15.944000,-0.16546763
15.948000,-0.16546763
15.952000,-0.15467626
15.956000,-0.14388489
15.960000,-0.12230216
15.964000,-0.09712230
15.968000,-0.11151079
15.972000,-0.10791367
15.976000,-0.08633094
15.980000,-0.05395683
15.984000,-0.00359712
15.988000,0.00719424
15.992000,0.00719424
15.996000,0.02517986
16.000000,0.07194245
16.004000,0.08273381
16.008000,0.07553957
16.012000,0.06834532
16.016000,0.04676259
16.020000,0.01079137
16.024000,-0.03597122
16.028000,-0.06834532
16.032000,-0.11151079
16.036000,-0.15467626
16.040000,-0.18345324
16.044000,-0.20863309
16.048000,-0.24460432
16.052000,-0.27697842
16.056000,-0.27697842
16.060000,-0.26258993
16.064000,-0.25539568
16.068000,-0.24100719
16.072000,-0.24460432
16.076000,-0.21942446
16.080000,-0.22302158
16.084000,-0.21223022
16.088000,-0.21582734
16.092000,-0.21223022
16.096000,-0.20863309
16.100000,-0.20863309
16.104000,-0.23021583
16.108000,-0.22661871
16.112000,-0.21582734
16.116000,-0.20863309
16.120000,-0.20143885
16.124000,-0.18705036
16.128000,-0.19784173
16.132000,-0.21223022
16.136000,-0.20143885
16.140000,-0.19424460
16.144000,-0.19424460
16.148000,-0.19424460
16.152000,-0.20143885
16.156000,-0.19424460
16.160000,-0.16187050
16.164000,-0.14028777
16.168000,-0.09712230
16.172000,-0.02517986
16.176000,0.02158273
16.180000,0.05755396
16.184000,0.10791367
16.188000,0.13309353
16.192000,0.14748201
16.196000,0.17266187
16.200000,0.17266187
16.204000,0.20143885
16.208000,0.26258993
16.212000,0.39568345
16.216000,0.60791367
16.220000,0.76258993
16.224000,0.70503597
16.228000,0.43525180
16.232000,0.05755396
16.236000,-0.18345324
16.240000,-0.26978417
16.244000,-0.33093525
16.248000,-0.32733813
16.252000,-0.30935252
16.256000,-0.30215827
16.260000,-0.30215827
16.264000,-0.30935252
16.268000,-0.30575540
16.272000,-0.32374101
16.276000,-0.31654676
16.280000,-0.31294964
16.284000,-0.28057554
16.288000,-0.27697842
16.292000,-0.29496403
16.296000,-0.29136691
16.300000,-0.29496403
16.304000,-0.31654676
16.308000,-0.34172662
16.312000,-0.31654676
16.316000,-0.30935252
16.320000,-0.32014388
16.324000,-0.32014388
16.328000,-0.30575540
16.332000,-0.32014388
16.336000,-0.31294964
16.340000,-0.31654676
16.344000,-0.32014388
16.348000,-0.32014388
16.352000,-0.32733813
16.356000,-0.32014388
16.360000,-0.32014388
16.364000,-0.30215827
16.368000,-0.29496403
16.372000,-0.28776978
16.376000,-0.28776978
16.380000,-0.28057554
16.384000,-0.27697842
16.388000,-0.28057554
16.392000,-0.25899281
16.396000,-0.25179856
16.400000,-0.23741007
16.404000,-0.23021583
16.408000,-0.25539568
16.412000,-0.25179856
16.416000,-0.24820144
16.420000,-0.23741007
16.424000,-0.22302158
16.428000,-0.23741007
16.432000,-0.23741007
16.436000,-0.21942446
16.440000,-0.20863309
16.444000,-0.21942446
16.448000,-0.22661871
16.452000,-0.21942446
16.456000,-0.21582734
16.460000,-0.21942446
16.464000,-0.21582734
16.468000,-0.20503597
16.472000,-0.22661871
16.476000,-0.20143885
16.480000,-0.19784173
16.484000,-0.18705036
16.488000,-0.17985612
16.492000,-0.15467626
16.496000,-0.17266187
16.500000,-0.17266187
16.504000,-0.16187050
16.508000,-0.15827338
16.512000,-0.15107914
16.516000,-0.14748201
16.520000,-0.14388489
16.524000,-0.14028777
16.528000,-0.12230216
16.532000,-0.12949640
16.536000,-0.12230216
16.540000,-0.10071942
16.544000,-0.09352518
16.548000,-0.05755396
16.552000,-0.03597122
16.556000,-0.01798561
16.560000,-0.00359712
16.564000,0.03237410
16.568000,0.04676259
16.572000,0.06474820
16.576000,0.06834532
16.580000,0.08273381
16.584000,0.05755396
16.588000,0.02158273
16.592000,-0.02158273
16.596000,-0.05395683
16.600000,-0.07913669
16.604000,-0.14388489
16.608000,-0.15827338
16.612000,-0.20863309
16.616000,-0.21942446
16.620000,-0.22302158
16.624000,-0.22302158
16.628000,-0.20863309
16.632000,-0.22302158
16.636000,-0.21223022
16.640000,-0.20143885
16.644000,-0.18705036
16.648000,-0.19424460
16.652000,-0.19784173
16.656000,-0.21582734
16.660000,-0.20143885
16.664000,-0.19424460
16.668000,-0.19784173
16.672000,-0.19064748
16.676000,-0.19784173
16.680000,-0.19424460
16.684000,-0.19424460
16.688000,-0.19784173
16.692000,-0.21223022
16.696000,-0.18705036
16.700000,-0.19784173
16.704000,-0.19064748
16.708000,-0.19424460
16.712000,-0.19064748
16.716000,-0.19784173
16.720000,-0.17266187
16.724000,-0.16546763
16.728000,-0.15827338
16.732000,-0.13669065
16.736000,-0.07553957
16.740000,0.00719424
16.744000,0.05755396
16.748000,0.12589928
16.752000,0.16906475
16.756000,0.22661871
16.760000,0.26258993
16.764000,0.28776978
16.768000,0.28417266
16.772000,0.29856115
16.776000,0.36690647
16.780000,0.50359712
16.784000,0.70143885
16.788000,0.83093525
16.792000,0.74460432
16.796000,0.43165468
16.800000,0.10071942
16.804000,-0.10431655
16.808000,-0.18345324
16.812000,-0.23021583
16.816000,-0.25179856
16.820000,-0.23741007
16.824000,-0.25179856
16.828000,-0.27338129
16.832000,-0.29856115
16.836000,-0.28417266
16.840000,-0.28417266
16.844000,-0.26618705
16.848000,-0.26978417
16.852000,-0.27338129
16.856000,-0.27338129
16.860000,-0.27338129
16.864000,-0.27338129
16.868000,-0.25179856
16.872000,-0.25899281
16.876000,-0.26618705
16.880000,-0.25899281
16.884000,-0.25539568
16.888000,-0.25899281
16.892000,-0.26978417
16.896000,-0.25899281
16.900000,-0.26618705
16.904000,-0.24820144
16.908000,-0.26618705
16.912000,-0.26618705
16.916000,-0.28417266
16.920000,-0.25539568
16.924000,-0.26258993
16.928000,-0.25539568
16.932000,-0.26618705
16.936000,-0.27338129
16.940000,-0.28417266
16.944000,-0.25179856
16.948000,-0.24820144
16.952000,-0.25179856
16.956000,-0.26618705
16.960000,-0.24100719
16.964000,-0.23381295
16.968000,-0.22302158
16.972000,-0.23741007
16.976000,-0.22302158
16.980000,-0.21223022
16.984000,-0.20863309
16.988000,-0.20143885
16.992000,-0.19424460
16.996000,-0.19064748
17.000000,-0.19784173
17.004000,-0.20143885
17.008000,-0.19064748
17.012000,-0.18705036
17.016000,-0.17625899
17.020000,-0.17985612
17.024000,-0.17985612
17.028000,-0.17625899
17.032000,-0.16906475
17.036000,-0.15827338
17.040000,-0.17266187
17.044000,-0.16906475
17.048000,-0.16906475
17.052000,-0.16546763
17.056000,-0.15107914
17.060000,-0.14388489
17.064000,-0.16187050
17.068000,-0.16187050
17.072000,-0.15827338
17.076000,-0.15827338
17.080000,-0.14388489
17.084000,-0.13669065
17.088000,-0.12230216
17.092000,-0.11151079
17.096000,-0.07913669
17.100000,-0.07553957
17.104000,-0.08992806
17.108000,-0.08273381
17.112000,-0.05395683
17.116000,-0.01438849
17.120000,0.02158273
17.124000,0.04676259
17.128000,0.05395683
17.132000,0.06474820
17.136000,0.08273381
17.140000,0.09352518
17.144000,0.07913669
17.148000,0.07194245
17.152000,0.05035971
17.156000,0.03956835
17.160000,-0.00359712
17.164000,-0.05755396
17.168000,-0.10791367
17.172000,-0.13669065
17.176000,-0.17625899
17.180000,-0.19784173
17.184000,-0.21942446
17.188000,-0.21582734
17.192000,-0.21942446
17.196000,-0.22302158
17.200000,-0.23021583
17.204000,-0.22302158
17.208000,-0.21223022
17.212000,-0.20503597
17.216000,-0.20143885
17.220000,-0.20863309
17.224000,-0.20503597
17.228000,-0.20503597
17.232000,-0.20863309
17.236000,-0.20143885
17.240000,-0.18345324
17.244000,-0.19064748
17.248000,-0.19064748
17.252000,-0.19424460
17.256000,-0.18705036
17.260000,-0.19424460
17.264000,-0.19784173
17.268000,-0.19064748
17.272000,-0.19064748
17.276000,-0.18345324
17.280000,-0.17985612
17.284000,-0.16906475
17.288000,-0.18345324
17.292000,-0.17985612
17.296000,-0.14748201
17.300000,-0.12230216
17.304000,-0.06474820
17.308000,-0.00359712
17.312000,0.04676259
17.316000,0.06115108
17.320000,0.09712230
17.324000,0.11151079
17.328000,0.11510791
17.332000,0.12949640
17.336000,0.14028777
17.340000,0.19424460
17.344000,0.33453237
17.348000,0.53597122
17.352000,0.73741007
17.356000,0.76618705
17.360000,0.53956835
17.364000,0.18705036
17.368000,-0.09712230
17.372000,-0.24460432
17.376000,-0.31294964
17.380000,-0.36330935
17.384000,-0.33093525
17.388000,-0.30575540
17.392000,-0.32374101
17.396000,-0.31654676
17.400000,-0.32374101
17.404000,-0.32014388
17.408000,-0.31294964
17.412000,-0.31654676
17.416000,-0.32014388
17.420000,-0.30575540
17.424000,-0.31294964
17.428000,-0.32374101
17.432000,-0.31654676
17.436000,-0.32733813
17.440000,-0.31654676
17.444000,-0.31654676
17.448000,-0.31654676
17.452000,-0.33093525
17.456000,-0.32014388
17.460000,-0.32733813
17.464000,-0.31654676
17.468000,-0.30935252
17.472000,-0.30575540
17.476000,-0.32014388
17.480000,-0.31654676
17.484000,-0.30575540
17.488000,-0.29496403
17.492000,-0.26978417
17.496000,-0.28776978
17.500000,-0.29496403
17.504000,-0.28057554
17.508000,-0.28417266
17.512000,-0.28417266
17.516000,-0.26618705
17.520000,-0.25179856
17.524000,-0.26978417
17.528000,-0.26258993
17.532000,-0.24460432
17.536000,-0.24460432
17.540000,-0.25179856
17.544000,-0.24460432
17.548000,-0.25539568
17.552000,-0.24460432
17.556000,-0.23021583
17.560000,-0.23381295
17.564000,-0.22661871
17.568000,-0.20863309
17.572000,-0.21223022
17.576000,-0.21223022
17.580000,-0.22661871
17.584000,-0.22302158
17.588000,-0.23021583
17.592000,-0.21223022
17.596000,-0.20503597
17.600000,-0.20863309
17.604000,-0.19424460
17.608000,-0.17985612
17.612000,-0.17985612
17.616000,-0.18705036
17.620000,-0.17625899
17.624000,-0.15827338
17.628000,-0.15107914
17.632000,-0.14748201
17.636000,-0.14028777
17.640000,-0.12589928
17.644000,-0.10431655
17.648000,-0.10791367
17.652000,-0.09352518
17.656000,-0.07913669
17.660000,-0.06474820
17.664000,-0.03237410
17.668000,-0.00359712
17.672000,0.00359712
17.676000,0.01798561
17.680000,0.02517986
17.684000,0.05035971
17.688000,0.04676259
17.692000,0.05395683
17.696000,0.02158273
17.700000,-0.00719424
17.704000,-0.04316547
17.708000,-0.08992806
17.712000,-0.13669065
17.716000,-0.17625899
17.720000,-0.20863309
17.724000,-0.23741007
17.728000,-0.25179856
17.732000,-0.26258993
17.736000,-0.24820144
17.740000,-0.24100719
17.744000,-0.24100719
17.748000,-0.24820144
17.752000,-0.23381295
17.756000,-0.23021583
17.760000,-0.23021583
17.764000,-0.22302158
17.768000,-0.22661871
17.772000,-0.21942446
17.776000,-0.21223022
17.780000,-0.20143885
17.784000,-0.23021583
17.788000,-0.23021583
17.792000,-0.23381295
17.796000,-0.23021583
17.800000,-0.22302158
17.804000,-0.23021583
17.808000,-0.22302158
17.812000,-0.22302158
17.816000,-0.22661871
17.820000,-0.21582734
17.824000,-0.21223022
17.828000,-0.20143885
17.832000,-0.20863309
17.836000,-0.20503597
17.840000,-0.19784173
17.844000,-0.16187050
17.848000,-0.10791367
17.852000,-0.02877698
17.856000,0.04316547
17.860000,0.06115108
17.864000,0.10071942
17.868000,0.10791367
17.872000,0.12949640
17.876000,0.13309353
17.880000,0.15107914
17.884000,0.17266187
17.888000,0.26618705
17.892000,0.45683453
17.896000,0.66906475
17.900000,0.78057554
17.904000,0.61870504
17.908000,0.26258993
17.912000,-0.05755396
17.916000,-0.26258993
17.920000,-0.33093525
17.924000,-0.38848921
17.928000,-0.37050360
17.932000,-0.35971223
17.936000,-0.35251799
17.940000,-0.35611511
17.944000,-0.34172662
17.948000,-0.33812950
17.952000,-0.32733813
17.956000,-0.34532374
17.960000,-0.32374101
17.964000,-0.33812950
17.968000,-0.32374101
17.972000,-0.32733813
17.976000,-0.30935252
17.980000,-0.29496403
17.984000,-0.29856115
17.988000,-0.29496403
17.992000,-0.28417266
17.996000,-0.30935252
18.000000,-0.32733813
18.004000,-0.32374101
18.008000,-0.33453237
18.012000,-0.30575540
18.016000,-0.29856115
18.020000,-0.31294964
18.024000,-0.31294964
18.028000,-0.32014388
18.032000,-0.30935252
18.036000,-0.32374101
18.040000,-0.33093525
18.044000,-0.31654676
18.048000,-0.30215827
18.052000,-0.29496403
18.056000,-0.29136691
18.060000,-0.29136691
18.064000,-0.28417266
18.068000,-0.26978417
18.072000,-0.27697842
18.076000,-0.26258993
18.080000,-0.25899281
18.084000,-0.24820144
18.088000,-0.24820144
18.092000,-0.23741007
18.096000,-0.23021583
18.100000,-0.22302158
18.104000,-0.22661871
18.108000,-0.22302158
18.112000,-0.23021583
18.116000,-0.21582734
18.120000,-0.21582734
18.124000,-0.20863309
18.128000,-0.21942446
18.132000,-0.19424460
18.136000,-0.19424460
18.140000,-0.20503597
18.144000,-0.20863309
18.148000,-0.21223022
18.152000,-0.21223022
18.156000,-0.22302158
18.160000,-0.19784173
18.164000,-0.19784173
18.168000,-0.18345324
18.172000,-0.18705036
18.176000,-0.17625899
18.180000,-0.17985612
18.184000,-0.17266187
18.188000,-0.16187050
18.192000,-0.17985612
18.196000,-0.18345324
18.200000,-0.15827338
18.204000,-0.13669065
18.208000,-0.13309353
18.212000,-0.12949640
18.216000,-0.14388489
18.220000,-0.11870504
18.224000,-0.08633094
18.228000,-0.06115108
18.232000,-0.03237410
18.236000,0.00000000
18.240000,0.00719424
18.244000,0.01438849
18.248000,0.02877698
18.252000,0.03237410
18.256000,0.05035971
18.260000,0.05755396
18.264000,0.02517986
18.268000,-0.01079137
18.272000,-0.05755396
18.276000,-0.09712230
18.280000,-0.15107914
18.284000,-0.18705036
18.288000,-0.23021583
18.292000,-0.24820144
18.296000,-0.25539568
18.300000,-0.27697842
18.304000,-0.26978417
18.308000,-0.26978417
18.312000,-0.26618705
18.316000,-0.24100719
18.320000,-0.24460432
18.324000,-0.26618705
18.328000,-0.27338129
18.332000,-0.26258993
18.336000,-0.24100719
18.340000,-0.21942446
18.344000,-0.22302158
18.348000,-0.22302158
18.352000,-0.24100719
18.356000,-0.24820144
18.360000,-0.24460432
18.364000,-0.23021583
18.368000,-0.23021583
18.372000,-0.23021583
18.376000,-0.22302158
18.380000,-0.21223022
18.384000,-0.22302158
18.388000,-0.24460432
18.392000,-0.24820144
18.396000,-0.23741007
18.400000,-0.22661871
18.404000,-0.19064748
18.408000,-0.15827338
18.412000,-0.12589928
18.416000,-0.06834532
18.420000,0.00000000
18.424000,0.04676259
18.428000,0.09352518
18.432000,0.13669065
18.436000,0.17266187
18.440000,0.19424460
18.444000,0.20863309
18.448000,0.22661871
18.452000,0.28776978
18.456000,0.42805755
18.460000,0.62589928
18.464000,0.75179856
18.468000,0.66906475
18.472000,0.36690647
18.476000,0.02877698
18.480000,-0.16546763
18.484000,-0.26258993
18.488000,-0.32374101
18.492000,-0.33093525
18.496000,-0.30935252
18.500000,-0.32014388
18.504000,-0.32014388
18.508000,-0.34172662
18.512000,-0.34532374
18.516000,-0.35251799
18.520000,-0.35971223
18.524000,-0.35971223
18.528000,-0.35611511
18.532000,-0.34532374
18.536000,-0.33812950
18.540000,-0.33812950
18.544000,-0.34892086
18.548000,-0.36330935
18.552000,-0.36330935
18.556000,-0.36330935
18.560000,-0.35251799
18.564000,-0.34172662
18.568000,-0.35251799
18.572000,-0.34532374
18.576000,-0.34172662
18.580000,-0.34172662
18.584000,-0.34172662
18.588000,-0.32733813
18.592000,-0.33093525
18.596000,-0.32374101
18.600000,-0.32733813
18.604000,-0.33453237
18.608000,-0.32733813
18.612000,-0.30935252
18.616000,-0.30935252
18.620000,-0.30215827
18.624000,-0.30575540
18.628000,-0.29496403
18.632000,-0.27697842
18.636000,-0.26978417
18.640000,-0.28417266
18.644000,-0.27697842
18.648000,-0.26618705
18.652000,-0.28057554
18.656000,-0.26618705
18.660000,-0.26258993
18.664000,-0.25539568
18.668000,-0.25539568
18.672000,-0.26258993
18.676000,-0.23381295
18.680000,-0.24100719
18.684000,-0.23381295
18.688000,-0.24100719
18.692000,-0.23381295
18.696000,-0.22302158
18.700000,-0.22661871
18.704000,-0.21582734
18.708000,-0.21942446
18.712000,-0.20143885
18.716000,-0.19424460
18.720000,-0.18345324
18.724000,-0.17985612
18.728000,-0.17266187
18.732000,-0.19064748
18.736000,-0.18345324
18.740000,-0.16906475
18.744000,-0.17266187
18.748000,-0.16906475
18.752000,-0.16906475
18.756000,-0.15467626
18.760000,-0.14748201
18.764000,-0.12949640
18.768000,-0.14028777
18.772000,-0.14028777
18.776000,-0.12589928
18.780000,-0.09712230
18.784000,-0.09352518
18.788000,-0.05755396
18.792000,-0.03956835
18.796000,-0.01079137
18.800000,0.00359712
18.804000,0.01079137
18.808000,0.02158273
18.812000,0.03597122
18.816000,0.04676259
18.820000,0.05755396
18.824000,0.02517986
18.828000,-0.00719424
18.832000,-0.04316547
18.836000,-0.08633094
18.840000,-0.13669065
18.844000,-0.16546763
18.848000,-0.20143885
18.852000,-0.22661871
18.856000,-0.24460432
18.860000,-0.23741007
18.864000,-0.24460432
18.868000,-0.23021583
18.872000,-0.23021583
18.876000,-0.23021583
18.880000,-0.22302158
18.884000,-0.21223022
18.888000,-0.21942446
18.892000,-0.23021583
18.896000,-0.24460432
18.900000,-0.23741007
18.904000,-0.22661871
18.908000,-0.21582734
18.912000,-0.22302158
18.916000,-0.21223022
18.920000,-0.20863309
18.924000,-0.21942446
18.928000,-0.20863309
18.932000,-0.21582734
18.936000,-0.21223022
18.940000,-0.23381295
18.944000,-0.23021583
18.948000,-0.22302158
18.952000,-0.21582734
18.956000,-0.20503597
18.960000,-0.19424460
18.964000,-0.18705036
18.968000,-0.15827338
18.972000,-0.12949640
18.976000,-0.06474820
18.980000,-0.00719424
18.984000,0.03237410
18.988000,0.08992806
18.992000,0.11151079
18.996000,0.12949640
19.000000,0.12949640
19.004000,0.13309353
19.008000,0.15107914
19.012000,0.19424460
19.016000,0.36690647
19.020000,0.56834532
19.024000,0.74820144
19.028000,0.72661871
19.032000,0.44964029
19.036000,0.08992806
19.040000,-0.15827338
19.044000,-0.28057554
19.048000,-0.33453237
19.052000,-0.36330935
19.056000,-0.35971223
19.060000,-0.34172662
19.064000,-0.34532374
19.068000,-0.34532374
19.072000,-0.34172662
19.076000,-0.34172662
19.080000,-0.33093525
19.084000,-0.32733813
19.088000,-0.31654676
19.092000,-0.32014388
19.096000,-0.32014388
19.100000,-0.32014388
19.104000,-0.32014388
19.108000,-0.32014388
19.112000,-0.30575540
19.116000,-0.31654676
19.120000,-0.32014388
19.124000,-0.32733813
19.128000,-0.33093525
19.132000,-0.32374101
19.136000,-0.32374101
19.140000,-0.33093525
19.144000,-0.32733813
19.148000,-0.34172662
19.152000,-0.33093525
19.156000,-0.33812950
19.160000,-0.32014388
19.164000,-0.33093525
19.168000,-0.31654676
19.172000,-0.31294964
19.176000,-0.31654676
19.180000,-0.31654676
19.184000,-0.28776978
19.188000,-0.29496403
19.192000,-0.29496403
19.196000,-0.27338129
19.200000,-0.26258993
19.204000,-0.24460432
19.208000,-0.25539568
19.212000,-0.24100719
19.216000,-0.23381295
19.220000,-0.23741007
19.224000,-0.24460432
19.228000,-0.23741007
19.232000,-0.22661871
19.236000,-0.20863309
19.240000,-0.23021583
19.244000,-0.22661871
19.248000,-0.21223022
19.252000,-0.22302158
19.256000,-0.22661871
19.260000,-0.24100719
19.264000,-0.21223022
19.268000,-0.21942446
19.272000,-0.21942446
19.276000,-0.21582734
19.280000,-0.20863309
19.284000,-0.20503597
19.288000,-0.19424460
19.292000,-0.21223022
19.296000,-0.19064748
19.300000,-0.20143885
19.304000,-0.19064748
19.308000,-0.17985612
19.312000,-0.14748201
19.316000,-0.13309353
19.320000,-0.14028777
19.324000,-0.14028777
19.328000,-0.11151079
19.332000,-0.10071942
19.336000,-0.06115108
19.340000,-0.01438849
19.344000,0.00719424
19.348000,0.00719424
19.352000,0.02877698
19.356000,0.03597122
19.360000,0.03237410
19.364000,0.03597122
19.368000,0.02877698
19.372000,0.00359712
19.376000,-0.02517986
19.380000,-0.06834532
19.384000,-0.11151079
19.388000,-0.15107914
19.392000,-0.20143885
19.396000,-0.24100719
19.400000,-0.26258993
19.404000,-0.26978417
19.408000,-0.28057554
19.412000,-0.28417266
19.416000,-0.27338129
19.420000,-0.26978417
19.424000,-0.27338129
19.428000,-0.25899281
19.432000,-0.25899281
19.436000,-0.27338129
19.440000,-0.26258993
19.444000,-0.26618705
19.448000,-0.25899281
19.452000,-0.25179856
19.456000,-0.25179856
19.460000,-0.24460432
19.464000,-0.25539568
19.468000,-0.26258993
19.472000,-0.23741007
19.476000,-0.24460432
19.480000,-0.23381295
19.484000,-0.23021583
19.488000,-0.25179856
19.492000,-0.25179856
19.496000,-0.25539568
19.500000,-0.25539568
19.504000,-0.25539568
19.508000,-0.24460432
19.512000,-0.24460432
19.516000,-0.21942446
19.520000,-0.17266187
19.524000,-0.11510791
19.528000,-0.07553957
19.532000,-0.02158273
19.536000,0.03597122
19.540000,0.05755396
19.544000,0.06834532
19.548000,0.07194245
19.552000,0.07194245
19.556000,0.08633094
19.560000,0.12949640
19.564000,0.24460432
19.568000,0.46043165
19.572000,0.66187050
19.576000,0.76258993
19.580000,0.57194245
19.584000,0.23021583
19.588000,-0.11510791
19.592000,-0.29496403
19.596000,-0.36690647
19.600000,-0.41007194
19.604000,-0.39208633
19.608000,-0.37769784
19.612000,-0.38489209
19.616000,-0.38848921
19.620000,-0.37050360
19.624000,-0.35611511
19.628000,-0.37410072
19.632000,-0.37769784
19.636000,-0.36330935
19.640000,-0.36330935
19.644000,-0.35611511
19.648000,-0.36690647
19.652000,-0.37050360
19.656000,-0.35971223
19.660000,-0.35971223
19.664000,-0.34892086
19.668000,-0.35251799
19.672000,-0.36330935
19.676000,-0.36330935
19.680000,-0.36330935
19.684000,-0.35971223
19.688000,-0.35971223
19.692000,-0.35251799
19.696000,-0.33093525
19.700000,-0.33453237
19.704000,-0.34172662
19.708000,-0.35251799
19.712000,-0.34532374
19.716000,-0.33453237
19.720000,-0.32733813
19.724000,-0.32733813
19.728000,-0.30935252
19.732000,-0.30575540
19.736000,-0.32014388
19.740000,-0.32374101
19.744000,-0.32374101
19.748000,-0.31654676
19.752000,-0.31294964
19.756000,-0.31294964
19.760000,-0.29496403
19.764000,-0.29136691
19.768000,-0.28417266
19.772000,-0.26978417
19.776000,-0.25179856
19.780000,-0.24460432
19.784000,-0.26258993
19.788000,-0.26618705
19.792000,-0.26258993
19.796000,-0.26258993
19.800000,-0.25539568
19.804000,-0.22661871
19.808000,-0.23021583
19.812000,-0.22302158
19.816000,-0.23021583
19.820000,-0.24460432
19.824000,-0.23021583
19.828000,-0.21582734
19.832000,-0.20863309
19.836000,-0.19064748
19.840000,-0.17625899
19.844000,-0.18705036
19.848000,-0.18705036
19.852000,-0.20143885
19.856000,-0.19064748
19.860000,-0.17985612
19.864000,-0.16187050
19.868000,-0.15467626
19.872000,-0.15827338
19.876000,-0.13669065
19.880000,-0.12589928
19.884000,-0.08633094
19.888000,-0.06115108
19.892000,-0.03956835
19.896000,-0.02517986
19.900000,-0.00359712
19.904000,0.01438849
19.908000,0.03237410
19.912000,0.04316547
19.916000,0.04676259
19.920000,0.05035971
19.924000,-0.00719424
19.928000,-0.03597122
19.932000,-0.08633094
19.936000,-0.11870504
19.940000,-0.17625899
19.944000,-0.20143885
19.948000,-0.22302158
19.952000,-0.22302158
19.956000,-0.25539568
19.960000,-0.27338129
19.964000,-0.27338129
19.968000,-0.25179856
19.972000,-0.24460432
19.976000,-0.24820144
19.980000,-0.24100719
19.984000,-0.23021583
19.988000,-0.23021583
19.992000,-0.24820144
19.996000,-0.24460432
20.000000,-0.23741007
20.004000,-0.24100719
20.008000,-0.22661871
20.012000,-0.24460432
20.016000,-0.23741007
20.020000,-0.22302158
20.024000,-0.22302158
20.028000,-0.21582734
20.032000,-0.22661871
20.036000,-0.23021583
20.040000,-0.21942446
20.044000,-0.24820144
20.048000,-0.25539568
20.052000,-0.22302158
20.056000,-0.19424460
20.060000,-0.15827338
20.064000,-0.15467626
20.068000,-0.13669065
20.072000,-0.10071942
20.076000,-0.03597122
20.080000,0.02158273
20.084000,0.07913669
20.088000,0.12230216
20.092000,0.16187050
20.096000,0.19784173
20.100000,0.20863309
20.104000,0.20143885
20.108000,0.20863309
20.112000,0.26978417
20.116000,0.39928058
20.120000,0.60071942
20.124000,0.74100719
20.128000,0.67625899
20.132000,0.38848921
20.136000,0.05035971
20.140000,-0.16906475
20.144000,-0.27338129
20.148000,-0.30575540
20.152000,-0.33453237
20.156000,-0.32374101
20.160000,-0.32374101
20.164000,-0.34892086
20.168000,-0.35251799
20.172000,-0.33453237
20.176000,-0.32374101
20.180000,-0.32374101
20.184000,-0.31294964
20.188000,-0.33812950
20.192000,-0.33093525
20.196000,-0.33812950
20.200000,-0.33812950
20.204000,-0.32374101
20.208000,-0.30935252
20.212000,-0.30935252
20.216000,-0.31294964
20.220000,-0.31654676
20.224000,-0.30935252
20.228000,-0.31294964
20.232000,-0.32014388
20.236000,-0.33093525
20.240000,-0.33093525
20.244000,-0.34532374
20.248000,-0.35251799
20.252000,-0.34532374
20.256000,-0.33453237
20.260000,-0.32733813
20.264000,-0.32374101
20.268000,-0.30935252
20.272000,-0.31654676
20.276000,-0.30215827
20.280000,-0.30575540
20.284000,-0.31654676
20.288000,-0.29856115
20.292000,-0.29496403
20.296000,-0.28417266
20.300000,-0.25899281
20.304000,-0.25179856
20.308000,-0.25179856
20.312000,-0.24460432
20.316000,-0.23741007
20.320000,-0.21582734
20.324000,-0.21582734
20.328000,-0.21942446
20.332000,-0.24100719
20.336000,-0.22661871
20.340000,-0.25179856
20.344000,-0.24460432
20.348000,-0.25179856
20.352000,-0.22302158
20.356000,-0.24100719
20.360000,-0.23381295
20.364000,-0.23021583
20.368000,-0.23741007
20.372000,-0.22661871
20.376000,-0.22302158
20.380000,-0.19784173
20.384000,-0.19424460
20.388000,-0.20863309
20.392000,-0.19064748
20.396000,-0.17266187
20.400000,-0.15107914
20.404000,-0.15827338
20.408000,-0.18345324
20.412000,-0.18345324
20.416000,-0.18705036
20.420000,-0.15107914
20.424000,-0.12589928
20.428000,-0.11151079
20.432000,-0.11151079
20.436000,-0.11510791
20.440000,-0.11510791
20.444000,-0.08992806
20.448000,-0.06474820
20.452000,-0.04316547
20.456000,-0.01079137
20.460000,0.01079137
20.464000,0.02158273
20.468000,0.05395683
20.472000,0.07194245
20.476000,0.07194245
20.480000,0.06474820
20.484000,0.05755396
20.488000,0.02158273
20.492000,-0.00719424
20.496000,-0.04676259
20.500000,-0.09352518
20.504000,-0.13309353
20.508000,-0.16546763
20.512000,-0.20503597
20.516000,-0.21223022
20.520000,-0.23381295
20.524000,-0.24460432
20.528000,-0.24100719
20.532000,-0.21942446
20.536000,-0.21942446
20.540000,-0.21582734
20.544000,-0.20143885
20.548000,-0.19064748
20.552000,-0.17985612
20.556000,-0.17985612
20.560000,-0.17985612
20.564000,-0.17985612
20.568000,-0.19064748
20.572000,-0.17985612
20.576000,-0.16187050
20.580000,-0.16546763
20.584000,-0.17266187
20.588000,-0.17625899
20.592000,-0.17985612
20.596000,-0.18705036
20.600000,-0.18345324
20.604000,-0.18345324
20.608000,-0.17266187
20.612000,-0.18705036
20.616000,-0.17266187
20.620000,-0.16546763
20.624000,-0.16546763
20.628000,-0.14748201
20.632000,-0.12230216
20.636000,-0.09352518
20.640000,-0.03597122
20.644000,0.03237410
20.648000,0.07194245
20.652000,0.13669065
20.656000,0.18345324
20.660000,0.21942446
20.664000,0.25179856
20.668000,0.25899281
20.672000,0.23741007
20.676000,0.28417266
20.680000,0.40647482
20.684000,0.61151079
20.688000,0.79856115
20.692000,0.81294964
20.696000,0.57553957
20.700000,0.21223022
20.704000,-0.05755396
20.708000,-0.20503597
20.712000,-0.27697842
20.716000,-0.30215827
20.720000,-0.29136691
20.724000,-0.28776978
20.728000,-0.30575540
20.732000,-0.32733813
20.736000,-0.32014388
20.740000,-0.31294964
20.744000,-0.32014388
20.748000,-0.31654676
20.752000,-0.30575540
20.756000,-0.30215827
20.760000,-0.30935252
20.764000,-0.29136691
20.768000,-0.30935252
20.772000,-0.32374101
20.776000,-0.32014388
20.780000,-0.31294964
20.784000,-0.32014388
20.788000,-0.30215827
20.792000,-0.30935252
20.796000,-0.30215827
20.800000,-0.29496403
20.804000,-0.30215827
20.808000,-0.31294964
20.812000,-0.31654676
20.816000,-0.30575540
20.820000,-0.30935252
20.824000,-0.30935252
20.828000,-0.30215827
20.832000,-0.28057554
20.836000,-0.28057554
20.840000,-0.27697842
20.844000,-0.28776978
20.848000,-0.29136691
20.852000,-0.28057554
20.856000,-0.27338129
20.860000,-0.26978417
20.864000,-0.25179856
20.868000,-0.25539568
20.872000,-0.25899281
20.876000,-0.24100719
20.880000,-0.23021583
20.884000,-0.24460432
20.888000,-0.24460432
20.892000,-0.23741007
20.896000,-0.22302158
20.900000,-0.20863309
20.904000,-0.20863309
20.908000,-0.21582734
20.912000,-0.19064748
20.916000,-0.20503597
20.920000,-0.19424460
20.924000,-0.19424460
20.928000,-0.19424460
20.932000,-0.17985612
20.936000,-0.16546763
20.940000,-0.17985612
20.944000,-0.16546763
20.948000,-0.18345324
20.952000,-0.16546763
20.956000,-0.15467626
20.960000,-0.15467626
20.964000,-0.16906475
20.968000,-0.16187050
20.972000,-0.15827338
20.976000,-0.14388489
20.980000,-0.13669065
20.984000,-0.11870504
20.988000,-0.12230216
20.992000,-0.10071942
20.996000,-0.09712230
21.000000,-0.07194245
21.004000,-0.03956835
21.008000,-0.00359712
21.012000,0.00359712
21.016000,0.00359712
21.020000,0.03956835
21.024000,0.05755396
21.028000,0.07194245
21.032000,0.07913669
21.036000,0.07194245
21.040000,0.05035971
21.044000,0.00359712
21.048000,-0.02877698
21.052000,-0.07553957
21.056000,-0.11151079
21.060000,-0.14748201
21.064000,-0.18345324
21.068000,-0.21223022
21.072000,-0.23381295
21.076000,-0.24820144
21.080000,-0.23021583
21.084000,-0.21223022
21.088000,-0.19784173
21.092000,-0.21942446
21.096000,-0.22302158
21.100000,-0.24100719
21.104000,-0.23741007
21.108000,-0.22302158
21.112000,-0.23021583
21.116000,-0.22302158
21.120000,-0.21223022
21.124000,-0.21582734
21.128000,-0.20863309
21.132000,-0.20863309
21.136000,-0.20863309
21.140000,-0.20143885
21.144000,-0.20863309
21.148000,-0.22302158
21.152000,-0.20863309
21.156000,-0.20143885
21.160000,-0.20143885
21.164000,-0.20143885
21.168000,-0.20503597
21.172000,-0.18705036
21.176000,-0.18705036
21.180000,-0.17625899
21.184000,-0.14748201
21.188000,-0.13669065
21.192000,-0.09712230
21.196000,-0.02877698
21.200000,0.01798561
21.204000,0.05395683
21.208000,0.10431655
21.212000,0.13309353
21.216000,0.11510791
21.220000,0.10071942
21.224000,0.12589928
21.228000,0.13669065
21.232000,0.22302158
21.236000,0.39928058
21.240000,0.61510791
21.244000,0.76258993
21.248000,0.69784173
21.252000,0.39928058
21.256000,0.05035971
21.260000,-0.20143885
21.264000,-0.30935252
21.268000,-0.35971223
21.272000,-0.36690647
21.276000,-0.33812950
21.280000,-0.32014388
21.284000,-0.33453237
21.288000,-0.35611511
21.292000,-0.33453237
21.296000,-0.33453237
21.300000,-0.30575540
21.304000,-0.32014388
21.308000,-0.30215827
21.312000,-0.30575540
21.316000,-0.30575540
21.320000,-0.31654676
21.324000,-0.32014388
21.328000,-0.30935252
21.332000,-0.32014388
21.336000,-0.30575540
21.340000,-0.30215827
21.344000,-0.31654676
21.348000,-0.33093525
21.352000,-0.32733813
21.356000,-0.33812950
21.360000,-0.33453237
21.364000,-0.33812950
21.368000,-0.31654676
21.372000,-0.32374101
21.376000,-0.30935252
21.380000,-0.31294964
21.384000,-0.31294964
21.388000,-0.29496403
21.392000,-0.31654676
21.396000,-0.30935252
21.400000,-0.32014388
21.404000,-0.28776978
21.408000,-0.30215827
21.412000,-0.28417266
21.416000,-0.26978417
21.420000,-0.25899281
21.424000,-0.25899281
21.428000,-0.25899281
21.432000,-0.25899281
21.436000,-0.24100719
21.440000,-0.24820144
21.444000,-0.25179856
21.448000,-0.23381295
21.452000,-0.23741007
21.456000,-0.23741007
21.460000,-0.23021583
21.464000,-0.22661871
21.468000,-0.23741007
21.472000,-0.23741007
21.476000,-0.23021583
21.480000,-0.23021583
