time,amplitude,sr,250.0
0.000000,-0.13317191
0.004000,-0.14285714
0.008000,-0.15012107
0.012000,-0.15254237
0.016000,-0.14527845
0.020000,-0.15496368
0.024000,-0.14527845
0.028000,-0.14527845
0.032000,-0.14043584
0.036000,-0.13559322
0.040000,-0.14285714
0.044000,-0.14043584
0.048000,-0.14769976
0.052000,-0.15254237
0.056000,-0.15496368
0.060000,-0.14285714
0.064000,-0.14285714
0.068000,-0.14769976
0.072000,-0.13317191
0.076000,-0.12106538
0.080000,-0.11138015
0.084000,-0.09200969
0.088000,-0.08474576
0.092000,-0.07990315
0.096000,-0.08232446
0.100000,-0.06779661
0.104000,-0.07021792
0.108000,-0.05811138
0.112000,-0.05811138
0.116000,-0.05326877
0.120000,-0.05569007
0.124000,-0.04358354
0.128000,-0.04842615
0.132000,-0.06295400
0.136000,-0.07748184
0.140000,-0.10411622
0.144000,-0.11138015
0.148000,-0.13801453
0.152000,-0.13559322
0.156000,-0.15496368
0.160000,-0.15012107
0.164000,-0.15012107
0.168000,-0.15496368
0.172000,-0.16464891
0.176000,-0.16222760
0.180000,-0.16464891
0.184000,-0.17433414
0.188000,-0.15012107
0.192000,-0.12590799
0.196000,-0.08716707
0.200000,0.01452785
0.204000,0.16949153
0.208000,0.33656174
0.212000,0.41646489
0.216000,0.49878935
0.220000,0.48184019
0.224000,0.20338983
0.228000,-0.28087167
0.232000,-0.65133172
0.236000,-0.82082324
0.240000,-0.85714286
0.244000,-0.79903148
0.248000,-0.66585956
0.252000,-0.48426150
0.256000,-0.35835351
0.260000,-0.28813559
0.264000,-0.23970944
0.268000,-0.21549637
0.272000,-0.21307506
0.276000,-0.21065375
0.280000,-0.21307506
0.284000,-0.20823245
0.288000,-0.20581114
0.292000,-0.19854722
0.296000,-0.18886199
0.300000,-0.20096852
0.304000,-0.20581114
0.308000,-0.19612591
0.312000,-0.21549637
0.316000,-0.21549637
0.320000,-0.22033898
0.324000,-0.22276029
0.328000,-0.22518160
0.332000,-0.23002421
0.336000,-0.22033898
0.340000,-0.20823245
0.344000,-0.21791768
0.348000,-0.22760291
0.352000,-0.21791768
0.356000,-0.22276029
0.360000,-0.24213075
0.364000,-0.24213075
0.368000,-0.24697337
0.372000,-0.24455206
0.376000,-0.25181598
0.380000,-0.24213075
0.384000,-0.25181598
0.388000,-0.25423729
0.392000,-0.25665860
0.396000,-0.27118644
0.400000,-0.29539952
0.404000,-0.29539952
0.408000,-0.31234867
0.412000,-0.31719128
0.416000,-0.31961259
0.420000,-0.32203390
0.424000,-0.33171913
0.428000,-0.33656174
0.432000,-0.33898305
0.436000,-0.34866828
0.440000,-0.37772397
0.444000,-0.38740920
0.448000,-0.38740920
0.452000,-0.39225182
0.456000,-0.40193705
0.460000,-0.40677966
0.464000,-0.40920097
0.468000,-0.41888620
0.472000,-0.42130751
0.476000,-0.42130751
0.480000,-0.42372881
0.484000,-0.42857143
0.488000,-0.44067797
0.492000,-0.43583535
0.496000,-0.43583535
0.500000,-0.43341404
0.504000,-0.40677966
0.508000,-0.38256659
0.512000,-0.35351090
0.516000,-0.32687651
0.520000,-0.30992736
0.524000,-0.28571429
0.528000,-0.27118644
0.532000,-0.23244552
0.536000,-0.20823245
0.540000,-0.19370460
0.544000,-0.17191283
0.548000,-0.15012107
0.552000,-0.14043584
0.556000,-0.11864407
0.560000,-0.10653753
0.564000,-0.10169492
0.568000,-0.10895884
0.572000,-0.10653753
0.576000,-0.09927361
0.580000,-0.11138015
0.584000,-0.12106538
0.588000,-0.11622276
0.592000,-0.11380145
0.596000,-0.11622276
0.600000,-0.11622276
0.604000,-0.10653753
0.608000,-0.10653753
0.612000,-0.10411622
0.616000,-0.10895884
0.620000,-0.12590799
0.624000,-0.12590799
0.628000,-0.13075061
0.632000,-0.14285714
0.636000,-0.13559322
0.640000,-0.13801453
0.644000,-0.13317191
0.648000,-0.13075061
0.652000,-0.12348668
0.656000,-0.12832930
0.660000,-0.13317191
0.664000,-0.14527845
0.668000,-0.15254237
0.672000,-0.15254237
0.676000,-0.14527845
0.680000,-0.14769976
0.684000,-0.14285714
0.688000,-0.14043584
0.692000,-0.14769976
0.696000,-0.13559322
0.700000,-0.14769976
0.704000,-0.15254237
0.708000,-0.14769976
0.712000,-0.14769976
0.716000,-0.14285714
0.720000,-0.14285714
0.724000,-0.14285714
0.728000,-0.14043584
0.732000,-0.13075061
0.736000,-0.12106538
0.740000,-0.13075061
0.744000,-0.12348668
0.748000,-0.12106538
0.752000,-0.14527845
0.756000,-0.11138015
0.760000,0.00242131
0.764000,0.19370460
0.768000,0.35835351
0.772000,0.50121065
0.776000,0.44067797
0.780000,0.05569007
0.784000,-0.42372881
0.788000,-0.70702179
0.792000,-0.83050847
0.796000,-0.83535109
0.800000,-0.76997579
0.804000,-0.66101695
0.808000,-0.48668281
0.812000,-0.30992736
0.816000,-0.16949153
0.820000,-0.07990315
0.824000,-0.06295400
0.828000,-0.05569007
0.832000,-0.07021792
0.836000,-0.07021792
0.840000,-0.07990315
0.844000,-0.09200969
0.848000,-0.09443099
0.852000,-0.09685230
0.856000,-0.09685230
0.860000,-0.08474576
0.864000,-0.09200969
0.868000,-0.10169492
0.872000,-0.11138015
0.876000,-0.11138015
0.880000,-0.13075061
0.884000,-0.14043584
0.888000,-0.15980630
0.892000,-0.15738499
0.896000,-0.15980630
0.900000,-0.17191283
0.904000,-0.17433414
0.908000,-0.16707022
0.912000,-0.15496368
0.916000,-0.15980630
0.920000,-0.15980630
0.924000,-0.17433414
0.928000,-0.17675545
0.932000,-0.19370460
0.936000,-0.20338983
0.940000,-0.20823245
0.944000,-0.21791768
0.948000,-0.22760291
0.952000,-0.22033898
0.956000,-0.22760291
0.960000,-0.22760291
0.964000,-0.24455206
0.968000,-0.25181598
0.972000,-0.27602906
0.976000,-0.28813559
0.980000,-0.29539952
0.984000,-0.30508475
0.988000,-0.30992736
0.992000,-0.31476998
0.996000,-0.31476998
1.000000,-0.30992736
1.004000,-0.30992736
1.008000,-0.30750605
1.012000,-0.31719128
1.016000,-0.32203390
1.020000,-0.32445521
1.024000,-0.31719128
1.028000,-0.30266344
1.032000,-0.29782082
1.036000,-0.27118644
1.040000,-0.24213075
1.044000,-0.22033898
1.048000,-0.19128329
1.052000,-0.16464891
1.056000,-0.14285714
1.060000,-0.11622276
1.064000,-0.10653753
1.068000,-0.09443099
1.072000,-0.07021792
1.076000,-0.05326877
1.080000,-0.03389831
1.084000,-0.02421308
1.088000,-0.01452785
1.092000,-0.01452785
1.096000,-0.01452785
1.100000,-0.01210654
1.104000,-0.02421308
1.108000,-0.03389831
1.112000,-0.03874092
1.116000,-0.03874092
1.120000,-0.04842615
1.124000,-0.05326877
1.128000,-0.05084746
1.132000,-0.04842615
1.136000,-0.04842615
1.140000,-0.05569007
1.144000,-0.06053269
1.148000,-0.06295400
1.152000,-0.07263923
1.156000,-0.07021792
1.160000,-0.07748184
1.164000,-0.07748184
1.168000,-0.07263923
1.172000,-0.06537530
1.176000,-0.07263923
1.180000,-0.07021792
1.184000,-0.08232446
1.188000,-0.08232446
1.192000,-0.09200969
1.196000,-0.08716707
1.200000,-0.09443099
1.204000,-0.10169492
1.208000,-0.10169492
1.212000,-0.10169492
1.216000,-0.09443099
1.220000,-0.08232446
1.224000,-0.07263923
1.228000,-0.07990315
1.232000,-0.09443099
1.236000,-0.09443099
1.240000,-0.10653753
1.244000,-0.10169492
1.248000,-0.11622276
1.252000,-0.10895884
1.256000,-0.09927361
1.260000,-0.09200969
1.264000,-0.07021792
1.268000,-0.05569007
1.272000,-0.03389831
1.276000,0.00242131
1.280000,0.02905569
1.284000,0.04358354
1.288000,0.05326877
1.292000,0.06779661
1.296000,0.05811138
1.300000,0.02905569
1.304000,0.02905569
1.308000,0.01694915
1.312000,0.00484262
1.316000,-0.01937046
1.320000,-0.04600484
1.324000,-0.06295400
1.328000,-0.09200969
1.332000,-0.11622276
1.336000,-0.12832930
1.340000,-0.14043584
1.344000,-0.13075061
1.348000,-0.13075061
1.352000,-0.12832930
1.356000,-0.12348668
1.360000,-0.12348668
1.364000,-0.11864407
1.368000,-0.11622276
1.372000,-0.11622276
1.376000,-0.09685230
1.380000,-0.07990315
1.384000,-0.06779661
1.388000,0.00484262
1.392000,0.14285714
1.396000,0.31961259
1.400000,0.42130751
1.404000,0.50605327
1.408000,0.53510896
1.412000,0.34624697
1.416000,-0.11622276
1.420000,-0.53753027
1.424000,-0.74818402
1.428000,-0.79661017
1.432000,-0.76755448
1.436000,-0.65133172
1.440000,-0.48426150
1.444000,-0.34624697
1.448000,-0.24697337
1.452000,-0.19854722
1.456000,-0.17433414
1.460000,-0.15980630
1.464000,-0.14527845
1.468000,-0.15980630
1.472000,-0.14527845
1.476000,-0.14769976
1.480000,-0.14527845
1.484000,-0.13801453
1.488000,-0.13559322
1.492000,-0.13559322
1.496000,-0.12590799
1.500000,-0.12348668
1.504000,-0.12348668
1.508000,-0.14527845
1.512000,-0.15496368
1.516000,-0.15980630
1.520000,-0.15496368
1.524000,-0.14769976
1.528000,-0.16222760
1.532000,-0.14527845
1.536000,-0.14285714
1.540000,-0.14527845
1.544000,-0.13559322
1.548000,-0.15012107
1.552000,-0.16222760
1.556000,-0.17433414
1.560000,-0.17917676
1.564000,-0.19128329
1.568000,-0.20096852
1.572000,-0.20338983
1.576000,-0.19854722
1.580000,-0.19854722
1.584000,-0.21307506
1.588000,-0.19854722
1.592000,-0.20823245
1.596000,-0.23002421
1.600000,-0.23970944
1.604000,-0.25181598
1.608000,-0.25665860
1.612000,-0.26150121
1.616000,-0.27360775
1.620000,-0.27602906
1.624000,-0.28329298
1.628000,-0.28571429
1.632000,-0.29782082
1.636000,-0.30992736
1.640000,-0.32687651
1.644000,-0.33898305
1.648000,-0.34866828
1.652000,-0.34624697
1.656000,-0.33898305
1.660000,-0.36077482
1.664000,-0.34382567
1.668000,-0.34140436
1.672000,-0.34140436
1.676000,-0.33414044
1.680000,-0.32929782
1.684000,-0.33414044
1.688000,-0.31961259
1.692000,-0.31719128
1.696000,-0.29539952
1.700000,-0.26634383
1.704000,-0.23728814
1.708000,-0.19612591
1.712000,-0.16949153
1.716000,-0.14527845
1.720000,-0.11138015
1.724000,-0.09443099
1.728000,-0.06779661
1.732000,-0.04842615
1.736000,-0.04358354
1.740000,-0.02421308
1.744000,-0.01452785
1.748000,0.00242131
1.752000,0.00726392
1.756000,0.02663438
1.760000,0.03147700
1.764000,0.02905569
1.768000,0.03874092
1.772000,0.02905569
1.776000,0.01694915
1.780000,0.02179177
1.784000,0.01452785
1.788000,0.02421308
1.792000,0.01694915
1.796000,0.02179177
1.800000,0.02905569
1.804000,0.04358354
1.808000,0.04116223
1.812000,0.03874092
1.816000,0.02663438
1.820000,0.02421308
1.824000,0.01210654
1.828000,0.00968523
1.832000,0.00968523
1.836000,0.01694915
1.840000,0.01694915
1.844000,0.01210654
1.848000,0.02179177
1.852000,0.00968523
1.856000,0.01694915
1.860000,0.02179177
1.864000,0.00484262
1.868000,-0.00726392
1.872000,-0.00968523
1.876000,-0.00726392
1.880000,-0.00242131
1.884000,-0.00484262
1.888000,0.00484262
1.892000,0.01937046
1.896000,0.01452785
1.900000,0.01694915
1.904000,0.01210654
1.908000,0.00726392
1.912000,0.01210654
1.916000,0.01452785
1.920000,0.00726392
1.924000,0.00000000
1.928000,-0.00484262
1.932000,0.00726392
1.936000,0.01452785
1.940000,0.01694915
1.944000,0.00726392
1.948000,0.00242131
1.952000,0.00242131
1.956000,-0.00968523
1.960000,-0.00484262
1.964000,-0.00726392
1.968000,0.00000000
1.972000,-0.00242131
1.976000,0.00242131
1.980000,0.00484262
1.984000,0.00968523
1.988000,0.00484262
1.992000,0.00000000
1.996000,-0.00242131
2.000000,0.00726392
2.004000,0.00000000
2.008000,0.00968523
2.012000,0.00242131
2.016000,0.01210654
2.020000,0.01694915
2.024000,0.02179177
2.028000,0.02905569
2.032000,0.02905569
2.036000,0.02179177
2.040000,0.00484262
2.044000,0.00968523
2.048000,0.00242131
2.052000,0.00726392
2.056000,0.00968523
2.060000,0.00484262
2.064000,0.00968523
2.068000,0.02421308
2.072000,0.02179177
2.076000,0.01210654
2.080000,0.01452785
2.084000,0.01210654
2.088000,0.00968523
2.092000,0.00726392
2.096000,0.00968523
2.100000,0.01937046
2.104000,0.02905569
2.108000,0.02179177
2.112000,0.01694915
2.116000,0.01210654
2.120000,0.01210654
2.124000,0.00968523
2.128000,0.00968523
2.132000,0.00484262
2.136000,-0.00484262
2.140000,0.00242131
2.144000,0.00726392
2.148000,0.01694915
2.152000,0.01694915
2.156000,0.00242131
2.160000,0.01452785
2.164000,0.02905569
2.168000,0.01937046
2.172000,0.01210654
2.176000,0.02179177
2.180000,0.00968523
2.184000,0.00726392
2.188000,0.00726392
2.192000,0.01694915
2.196000,0.01210654
2.200000,0.02663438
2.204000,0.04600484
2.208000,0.05811138
2.212000,0.07506053
2.216000,0.09200969
2.220000,0.08474576
2.224000,0.08232446
2.228000,0.07263923
2.232000,0.08232446
2.236000,0.09927361
2.240000,0.11138015
2.244000,0.11864407
2.248000,0.12348668
2.252000,0.15254237
2.256000,0.12590799
2.260000,0.09927361
2.264000,0.08716707
2.268000,0.06295400
2.272000,0.02905569
2.276000,0.01452785
2.280000,0.00968523
2.284000,0.00000000
2.288000,-0.01694915
2.292000,-0.02179177
2.296000,-0.01210654
2.300000,0.00000000
2.304000,0.00242131
2.308000,0.00968523
2.312000,0.01937046
2.316000,0.05811138
2.320000,0.08232446
2.324000,0.16464891
2.328000,0.30750605
2.332000,0.49636804
2.336000,0.61016949
2.340000,0.72397094
2.344000,0.74092010
2.348000,0.50847458
2.352000,0.05811138
2.356000,-0.35351090
2.360000,-0.58837772
2.364000,-0.61743341
2.368000,-0.57384988
2.372000,-0.51815981
2.376000,-0.41162228
2.380000,-0.27118644
2.384000,-0.15254237
2.388000,-0.07990315
2.392000,-0.05811138
2.396000,-0.04358354
2.400000,-0.03389831
2.404000,-0.03147700
2.408000,-0.02905569
2.412000,-0.03147700
2.416000,-0.01937046
2.420000,-0.01210654
2.424000,-0.00968523
2.428000,-0.00968523
2.432000,-0.00726392
2.436000,-0.00968523
2.440000,-0.00726392
2.444000,-0.01937046
2.448000,-0.02179177
2.452000,-0.01937046
2.456000,-0.01937046
2.460000,0.00000000
2.464000,0.00242131
2.468000,-0.00242131
2.472000,0.00000000
2.476000,-0.00484262
2.480000,-0.01452785
2.484000,-0.03147700
2.488000,-0.03874092
2.492000,-0.05326877
2.496000,-0.05811138
2.500000,-0.04358354
2.504000,-0.04116223
2.508000,-0.04358354
2.512000,-0.06053269
2.516000,-0.06053269
2.520000,-0.06053269
2.524000,-0.05326877
2.528000,-0.06779661
2.532000,-0.09685230
2.536000,-0.11864407
2.540000,-0.12590799
2.544000,-0.13317191
2.548000,-0.14769976
2.552000,-0.14769976
2.556000,-0.15254237
2.560000,-0.14285714
2.564000,-0.15012107
2.568000,-0.15254237
2.572000,-0.17191283
2.576000,-0.19128329
2.580000,-0.20096852
2.584000,-0.20581114
2.588000,-0.21065375
2.592000,-0.21549637
2.596000,-0.22518160
2.600000,-0.21065375
2.604000,-0.20823245
2.608000,-0.20581114
2.612000,-0.20823245
2.616000,-0.21065375
2.620000,-0.19370460
2.624000,-0.16464891
2.628000,-0.15980630
2.632000,-0.13317191
2.636000,-0.12106538
2.640000,-0.10411622
2.644000,-0.07021792
2.648000,-0.03631961
2.652000,-0.01210654
2.656000,0.00000000
2.660000,0.00726392
2.664000,0.00242131
2.668000,0.00000000
2.672000,0.00000000
2.676000,0.02421308
2.680000,0.03389831
2.684000,0.04600484
2.688000,0.06053269
2.692000,0.05084746
2.696000,0.05326877
2.700000,0.04842615
2.704000,0.03631961
2.708000,0.03631961
2.712000,0.04358354
2.716000,0.04842615
2.720000,0.05084746
2.724000,0.04600484
2.728000,0.04600484
2.732000,0.05084746
2.736000,0.05326877
2.740000,0.05084746
2.744000,0.05326877
2.748000,0.05084746
2.752000,0.04116223
2.756000,0.02905569
2.760000,0.03631961
2.764000,0.03147700
2.768000,0.03147700
2.772000,0.03389831
2.776000,0.04358354
2.780000,0.04842615
2.784000,0.04600484
2.788000,0.05569007
2.792000,0.04358354
2.796000,0.02663438
2.800000,0.01694915
2.804000,0.02421308
2.808000,0.02179177
2.812000,0.02421308
2.816000,0.02663438
2.820000,0.02421308
2.824000,0.02179177
2.828000,0.02421308
2.832000,0.02421308
2.836000,0.02179177
2.840000,0.01694915
2.844000,0.02421308
2.848000,0.00726392
2.852000,0.00726392
2.856000,0.01937046
2.860000,0.04358354
2.864000,0.07263923
2.868000,0.08232446
2.872000,0.11380145
2.876000,0.21065375
2.880000,0.37530266
2.884000,0.54479419
2.888000,0.64164649
2.892000,0.64648910
2.896000,0.45520581
2.900000,0.00000000
2.904000,-0.44552058
2.908000,-0.65859564
2.912000,-0.69249395
2.916000,-0.64164649
2.920000,-0.55447942
2.924000,-0.40920097
2.928000,-0.26876513
2.932000,-0.15738499
2.936000,-0.09200969
2.940000,-0.05569007
2.944000,-0.01937046
2.948000,-0.01210654
2.952000,-0.00484262
2.956000,-0.00242131
2.960000,0.00000000
2.964000,-0.00242131
2.968000,0.00484262
2.972000,-0.00968523
2.976000,-0.00484262
2.980000,-0.01210654
2.984000,-0.00968523
2.988000,-0.01210654
2.992000,-0.00968523
2.996000,-0.00968523
3.000000,-0.01210654
3.004000,-0.01452785
3.008000,-0.01452785
3.012000,-0.02179177
3.016000,-0.02421308
3.020000,-0.04116223
3.024000,-0.03631961
3.028000,-0.02905569
3.032000,-0.04358354
3.036000,-0.04842615
3.040000,-0.04842615
3.044000,-0.04842615
3.048000,-0.05569007
3.052000,-0.05084746
3.056000,-0.05569007
3.060000,-0.07748184
3.064000,-0.09200969
3.068000,-0.09685230
3.072000,-0.12106538
3.076000,-0.11864407
3.080000,-0.13559322
3.084000,-0.12832930
3.088000,-0.13801453
3.092000,-0.14769976
3.096000,-0.16949153
3.100000,-0.18644068
3.104000,-0.19612591
3.108000,-0.20581114
3.112000,-0.23002421
3.116000,-0.22760291
3.120000,-0.23002421
3.124000,-0.23486683
3.128000,-0.23244552
3.132000,-0.24697337
3.136000,-0.24939467
3.140000,-0.23970944
3.144000,-0.24455206
3.148000,-0.24213075
3.152000,-0.22033898
3.156000,-0.20581114
3.160000,-0.18644068
3.164000,-0.15980630
3.168000,-0.14527845
3.172000,-0.11622276
3.176000,-0.09685230
3.180000,-0.05569007
3.184000,-0.03874092
3.188000,-0.03631961
3.192000,-0.02179177
3.196000,-0.01694915
3.200000,-0.00484262
3.204000,-0.00968523
3.208000,0.00484262
3.212000,0.01210654
3.216000,0.01452785
3.220000,0.00726392
3.224000,-0.00242131
3.228000,-0.00242131
3.232000,-0.01937046
3.236000,-0.02905569
3.240000,-0.04600484
3.244000,-0.03874092
3.248000,-0.04358354
3.252000,-0.04842615
3.256000,-0.04116223
3.260000,-0.05084746
3.264000,-0.05569007
3.268000,-0.05811138
3.272000,-0.05811138
3.276000,-0.07263923
3.280000,-0.07748184
3.284000,-0.08232446
3.288000,-0.08716707
3.292000,-0.08232446
3.296000,-0.08958838
3.300000,-0.09200969
3.304000,-0.08716707
3.308000,-0.08958838
3.312000,-0.10411622
3.316000,-0.10411622
3.320000,-0.10653753
3.324000,-0.11380145
3.328000,-0.10895884
3.332000,-0.11380145
3.336000,-0.13317191
3.340000,-0.12590799
3.344000,-0.11622276
3.348000,-0.12106538
3.352000,-0.11622276
3.356000,-0.10895884
3.360000,-0.12832930
3.364000,-0.13317191
3.368000,-0.13317191
3.372000,-0.11138015
3.376000,-0.09443099
3.380000,-0.07263923
3.384000,-0.03389831
3.388000,-0.00968523
3.392000,0.00726392
3.396000,0.01210654
3.400000,0.01210654
3.404000,0.01210654
3.408000,-0.00968523
3.412000,-0.03631961
3.416000,-0.05811138
3.420000,-0.06779661
3.424000,-0.08232446
3.428000,-0.11138015
3.432000,-0.13317191
3.436000,-0.16222760
3.440000,-0.18159806
3.444000,-0.18401937
3.448000,-0.19612591
3.452000,-0.20823245
3.456000,-0.21549637
3.460000,-0.20581114
3.464000,-0.21065375
3.468000,-0.18886199
3.472000,-0.14043584
3.476000,-0.10895884
3.480000,-0.04600484
3.484000,0.08232446
3.488000,0.23244552
3.492000,0.33171913
3.496000,0.37772397
3.500000,0.41646489
3.504000,0.28571429
3.508000,-0.12590799
3.512000,-0.58353511
3.516000,-0.83292978
3.520000,-0.91283293
3.524000,-0.86440678
3.528000,-0.76271186
3.532000,-0.62711864
3.536000,-0.49394673
3.540000,-0.39951574
3.544000,-0.34140436
3.548000,-0.31234867
3.552000,-0.29539952
3.556000,-0.28571429
3.560000,-0.26876513
3.564000,-0.26392252
3.568000,-0.26150121
3.572000,-0.26392252
3.576000,-0.26150121
3.580000,-0.26150121
3.584000,-0.26876513
3.588000,-0.26634383
3.592000,-0.27602906
3.596000,-0.28087167
3.600000,-0.28087167
3.604000,-0.29055690
3.608000,-0.28329298
3.612000,-0.28087167
3.616000,-0.29055690
3.620000,-0.30024213
3.624000,-0.31476998
3.628000,-0.30992736
3.632000,-0.32203390
3.636000,-0.32445521
3.640000,-0.32203390
3.644000,-0.33656174
3.648000,-0.34624697
3.652000,-0.33898305
3.656000,-0.34140436
3.660000,-0.33898305
3.664000,-0.35351090
3.668000,-0.35108959
3.672000,-0.36561743
3.676000,-0.38256659
3.680000,-0.40193705
3.684000,-0.40435835
3.688000,-0.42615012
3.692000,-0.43099274
3.696000,-0.43099274
3.700000,-0.44067797
3.704000,-0.44309927
3.708000,-0.45762712
3.712000,-0.47941889
3.716000,-0.50363196
3.720000,-0.51089588
3.724000,-0.51089588
3.728000,-0.51573850
3.732000,-0.52542373
3.736000,-0.53753027
3.740000,-0.54479419
3.744000,-0.53995157
3.748000,-0.55447942
3.752000,-0.56174334
3.756000,-0.56658596
3.760000,-0.57627119
3.764000,-0.56658596
3.768000,-0.57384988
3.772000,-0.57142857
3.776000,-0.55932203
3.780000,-0.55447942
3.784000,-0.52784504
3.788000,-0.50121065
3.792000,-0.46004843
3.796000,-0.43341404
3.800000,-0.40920097
3.804000,-0.39951574
3.808000,-0.37288136
3.812000,-0.35108959
3.816000,-0.31961259
3.820000,-0.30750605
3.824000,-0.27602906
3.828000,-0.25181598
3.832000,-0.22760291
3.836000,-0.21065375
3.840000,-0.19854722
3.844000,-0.20338983
3.848000,-0.20823245
3.852000,-0.21307506
3.856000,-0.20823245
3.860000,-0.20096852
3.864000,-0.20096852
3.868000,-0.21549637
3.872000,-0.19612591
3.876000,-0.20338983
3.880000,-0.20338983
3.884000,-0.20581114
3.888000,-0.20096852
3.892000,-0.21065375
3.896000,-0.21791768
3.900000,-0.21549637
3.904000,-0.22276029
3.908000,-0.20823245
3.912000,-0.22760291
3.916000,-0.21549637
3.920000,-0.22518160
3.924000,-0.22276029
3.928000,-0.22276029
3.932000,-0.22518160
3.936000,-0.23486683
3.940000,-0.23970944
3.944000,-0.24213075
3.948000,-0.25181598
3.952000,-0.25423729
3.956000,-0.25423729
3.960000,-0.25181598
3.964000,-0.25181598
3.968000,-0.23244552
3.972000,-0.24213075
3.976000,-0.25423729
3.980000,-0.25665860
3.984000,-0.26150121
3.988000,-0.26392252
3.992000,-0.26876513
3.996000,-0.26876513
4.000000,-0.26876513
4.004000,-0.26392252
4.008000,-0.26150121
4.012000,-0.26150121
4.016000,-0.25665860
4.020000,-0.26150121
4.024000,-0.27118644
4.028000,-0.28087167
4.032000,-0.28571429
4.036000,-0.28813559
4.040000,-0.28813559
4.044000,-0.27602906
4.048000,-0.27602906
4.052000,-0.27845036
4.056000,-0.26876513
4.060000,-0.27602906
4.064000,-0.27845036
4.068000,-0.28813559
4.072000,-0.29297821
4.076000,-0.30024213
4.080000,-0.30024213
4.084000,-0.30024213
4.088000,-0.29539952
4.092000,-0.29055690
4.096000,-0.28329298
4.100000,-0.28329298
4.104000,-0.28813559
4.108000,-0.29297821
4.112000,-0.28813559
4.116000,-0.28571429
4.120000,-0.30750605
4.124000,-0.29297821
4.128000,-0.29782082
4.132000,-0.29782082
4.136000,-0.30024213
4.140000,-0.28087167
4.144000,-0.27602906
4.148000,-0.29297821
4.152000,-0.29055690
4.156000,-0.29782082
4.160000,-0.30750605
4.164000,-0.30992736
4.168000,-0.31476998
4.172000,-0.30992736
4.176000,-0.30266344
4.180000,-0.30266344
4.184000,-0.28813559
4.188000,-0.29539952
4.192000,-0.28329298
4.196000,-0.29539952
4.200000,-0.30024213
4.204000,-0.31476998
4.208000,-0.30992736
4.212000,-0.30508475
4.216000,-0.30992736
4.220000,-0.31719128
4.224000,-0.30508475
4.228000,-0.30024213
4.232000,-0.30266344
4.236000,-0.29782082
4.240000,-0.30750605
4.244000,-0.30508475
4.248000,-0.30750605
4.252000,-0.31961259
4.256000,-0.31476998
4.260000,-0.32203390
4.264000,-0.31719128
4.268000,-0.31234867
4.272000,-0.30750605
4.276000,-0.29782082
4.280000,-0.29539952
4.284000,-0.30992736
4.288000,-0.30266344
4.292000,-0.31476998
4.296000,-0.31961259
4.300000,-0.32203390
4.304000,-0.31961259
4.308000,-0.31476998
4.312000,-0.29539952
4.316000,-0.27118644
4.320000,-0.26392252
4.324000,-0.24213075
4.328000,-0.24697337
4.332000,-0.24697337
4.336000,-0.25181598
4.340000,-0.24455206
4.344000,-0.24697337
4.348000,-0.23970944
4.352000,-0.23728814
4.356000,-0.23728814
4.360000,-0.23728814
4.364000,-0.24697337
4.368000,-0.25665860
4.372000,-0.27602906
4.376000,-0.28087167
4.380000,-0.30508475
4.384000,-0.31476998
4.388000,-0.32687651
4.392000,-0.33656174
4.396000,-0.35108959
4.400000,-0.34866828
4.404000,-0.34140436
4.408000,-0.33898305
4.412000,-0.33898305
4.416000,-0.33414044
4.420000,-0.32203390
4.424000,-0.30750605
4.428000,-0.28087167
4.432000,-0.23002421
4.436000,-0.09443099
4.440000,0.07748184
4.444000,0.21307506
4.448000,0.28813559
4.452000,0.34866828
4.456000,0.30024213
4.460000,-0.04842615
4.464000,-0.50847458
4.468000,-0.84261501
4.472000,-0.98062954
4.476000,-1.00000000
4.480000,-0.91767554
4.484000,-0.78934625
4.488000,-0.64164649
4.492000,-0.51815981
4.496000,-0.45520581
4.500000,-0.42130751
4.504000,-0.38498789
4.508000,-0.37288136
4.512000,-0.38498789
4.516000,-0.38740920
4.520000,-0.38740920
4.524000,-0.38256659
4.528000,-0.38256659
4.532000,-0.36803874
4.536000,-0.36077482
4.540000,-0.35593220
4.544000,-0.36319613
4.548000,-0.37288136
4.552000,-0.37046005
4.556000,-0.38014528
4.560000,-0.38983051
4.564000,-0.38740920
4.568000,-0.38256659
4.572000,-0.39467312
4.576000,-0.39225182
4.580000,-0.38014528
4.584000,-0.38256659
4.588000,-0.38740920
4.592000,-0.38256659
4.596000,-0.39467312
4.600000,-0.39467312
4.604000,-0.40435835
4.608000,-0.41646489
4.612000,-0.40920097
4.616000,-0.42372881
4.620000,-0.41888620
4.624000,-0.42372881
4.628000,-0.41646489
4.632000,-0.40920097
4.636000,-0.43099274
4.640000,-0.44794189
4.644000,-0.46973366
4.648000,-0.47215496
4.652000,-0.48184019
4.656000,-0.48668281
4.660000,-0.50363196
4.664000,-0.51331719
4.668000,-0.50121065
4.672000,-0.51331719
4.676000,-0.51815981
4.680000,-0.52542373
4.684000,-0.53510896
4.688000,-0.54963680
4.692000,-0.55690073
4.696000,-0.55932203
4.700000,-0.57627119
4.704000,-0.57627119
4.708000,-0.58837772
4.712000,-0.58595642
4.716000,-0.58595642
4.720000,-0.59322034
4.724000,-0.59564165
4.728000,-0.60048426
4.732000,-0.59806295
4.736000,-0.58837772
4.740000,-0.57384988
4.744000,-0.56416465
4.748000,-0.54479419
4.752000,-0.51331719
4.756000,-0.48910412
4.760000,-0.46731235
4.764000,-0.45036320
4.768000,-0.41404358
4.772000,-0.38498789
4.776000,-0.35351090
4.780000,-0.32203390
4.784000,-0.30992736
4.788000,-0.30992736
4.792000,-0.28571429
4.796000,-0.26876513
4.800000,-0.26150121
4.804000,-0.25907990
4.808000,-0.25181598
4.812000,-0.24455206
4.816000,-0.26150121
4.820000,-0.26634383
4.824000,-0.27118644
4.828000,-0.28087167
4.832000,-0.27845036
4.836000,-0.27845036
4.840000,-0.26392252
4.844000,-0.25665860
4.848000,-0.26634383
4.852000,-0.26392252
4.856000,-0.26150121
4.860000,-0.27118644
4.864000,-0.27360775
4.868000,-0.28087167
4.872000,-0.28087167
4.876000,-0.27360775
4.880000,-0.27360775
4.884000,-0.27845036
4.888000,-0.27602906
4.892000,-0.28329298
4.896000,-0.28087167
4.900000,-0.27602906
4.904000,-0.28571429
4.908000,-0.29782082
4.912000,-0.30266344
4.916000,-0.30024213
4.920000,-0.30024213
4.924000,-0.29297821
4.928000,-0.28571429
4.932000,-0.28087167
4.936000,-0.28087167
4.940000,-0.28571429
4.944000,-0.28813559
4.948000,-0.29539952
4.952000,-0.30024213
4.956000,-0.29539952
4.960000,-0.29055690
4.964000,-0.29297821
4.968000,-0.29055690
4.972000,-0.28087167
4.976000,-0.27845036
4.980000,-0.26634383
4.984000,-0.26392252
4.988000,-0.27845036
4.992000,-0.29297821
4.996000,-0.26392252
5.000000,-0.15980630
5.004000,0.02663438
5.008000,0.20581114
5.012000,0.34382567
5.016000,0.27360775
5.020000,-0.15738499
5.024000,-0.61016949
5.028000,-0.87167070
5.032000,-0.97820823
5.036000,-0.97578692
5.040000,-0.93220339
5.044000,-0.85472155
5.048000,-0.72397094
5.052000,-0.55205811
5.056000,-0.39467312
5.060000,-0.30508475
5.064000,-0.26392252
5.068000,-0.25907990
5.072000,-0.24455206
5.076000,-0.24455206
5.080000,-0.25181598
5.084000,-0.24697337
5.088000,-0.23970944
5.092000,-0.25423729
5.096000,-0.25181598
5.100000,-0.23728814
5.104000,-0.24213075
5.108000,-0.25181598
5.112000,-0.24939467
5.116000,-0.25181598
5.120000,-0.26392252
5.124000,-0.27602906
5.128000,-0.28813559
5.132000,-0.29539952
5.136000,-0.29055690
5.140000,-0.29782082
5.144000,-0.29297821
5.148000,-0.29782082
5.152000,-0.30266344
5.156000,-0.29782082
5.160000,-0.30992736
5.164000,-0.31719128
5.168000,-0.31961259
5.172000,-0.32929782
5.176000,-0.32929782
5.180000,-0.34382567
5.184000,-0.35351090
5.188000,-0.35593220
5.192000,-0.35351090
5.196000,-0.36319613
5.200000,-0.37288136
5.204000,-0.37288136
5.208000,-0.38740920
5.212000,-0.39951574
5.216000,-0.41646489
5.220000,-0.44067797
5.224000,-0.44794189
5.228000,-0.44794189
5.232000,-0.44309927
5.236000,-0.44067797
5.240000,-0.43825666
5.244000,-0.44794189
5.248000,-0.45520581
5.252000,-0.46731235
5.256000,-0.47457627
5.260000,-0.46489104
5.264000,-0.46489104
5.268000,-0.45278450
5.272000,-0.43825666
5.276000,-0.41646489
5.280000,-0.39951574
5.284000,-0.37772397
5.288000,-0.35835351
5.292000,-0.32687651
5.296000,-0.30750605
5.300000,-0.28571429
5.304000,-0.25423729
5.308000,-0.24455206
5.312000,-0.22518160
5.316000,-0.21549637
5.320000,-0.19370460
5.324000,-0.18159806
5.328000,-0.16707022
5.332000,-0.17191283
5.336000,-0.16949153
5.340000,-0.18401937
5.344000,-0.18401937
5.348000,-0.19612591
5.352000,-0.20581114
5.356000,-0.21065375
5.360000,-0.21307506
5.364000,-0.21307506
5.368000,-0.21307506
5.372000,-0.21549637
5.376000,-0.20823245
5.380000,-0.21307506
5.384000,-0.23486683
5.388000,-0.24213075
5.392000,-0.23486683
5.396000,-0.24213075
5.400000,-0.24455206
5.404000,-0.23728814
5.408000,-0.23728814
5.412000,-0.23244552
5.416000,-0.23486683
5.420000,-0.23244552
5.424000,-0.23728814
5.428000,-0.24213075
5.432000,-0.24455206
5.436000,-0.24455206
5.440000,-0.25665860
5.444000,-0.25181598
5.448000,-0.26634383
5.452000,-0.25181598
5.456000,-0.23486683
5.460000,-0.23970944
5.464000,-0.24697337
5.468000,-0.23728814
5.472000,-0.24697337
5.476000,-0.24455206
5.480000,-0.25665860
5.484000,-0.25665860
5.488000,-0.25181598
5.492000,-0.25181598
5.496000,-0.23486683
5.500000,-0.22033898
5.504000,-0.20581114
5.508000,-0.18401937
5.512000,-0.14527845
5.516000,-0.11622276
5.520000,-0.09685230
5.524000,-0.08716707
5.528000,-0.07748184
5.532000,-0.08232446
5.536000,-0.10169492
5.540000,-0.10411622
5.544000,-0.11380145
5.548000,-0.13801453
5.552000,-0.15254237
5.556000,-0.17675545
5.560000,-0.21065375
5.564000,-0.23970944
5.568000,-0.25907990
5.572000,-0.27118644
5.576000,-0.28087167
5.580000,-0.27118644
5.584000,-0.27602906
5.588000,-0.27118644
5.592000,-0.25907990
5.596000,-0.25907990
5.600000,-0.25665860
5.604000,-0.26634383
5.608000,-0.25665860
5.612000,-0.23244552
5.616000,-0.21549637
5.620000,-0.17675545
5.624000,-0.06053269
5.628000,0.10895884
5.632000,0.25907990
5.636000,0.34866828
5.640000,0.40920097
5.644000,0.34140436
5.648000,-0.01210654
5.652000,-0.48910412
5.656000,-0.80629540
5.660000,-0.93946731
5.664000,-0.93946731
5.668000,-0.83535109
5.672000,-0.68523002
5.676000,-0.51815981
5.680000,-0.39951574
5.684000,-0.34866828
5.688000,-0.31719128
5.692000,-0.30992736
5.696000,-0.30992736
5.700000,-0.30992736
5.704000,-0.30024213
5.708000,-0.29297821
5.712000,-0.29539952
5.716000,-0.28571429
5.720000,-0.27602906
5.724000,-0.27118644
5.728000,-0.27118644
5.732000,-0.27602906
5.736000,-0.27118644
5.740000,-0.27118644
5.744000,-0.28087167
5.748000,-0.29539952
5.752000,-0.28571429
5.756000,-0.28329298
5.760000,-0.28329298
5.764000,-0.28329298
5.768000,-0.27118644
5.772000,-0.28329298
5.776000,-0.29539952
5.780000,-0.30024213
5.784000,-0.30750605
5.788000,-0.32203390
5.792000,-0.33171913
5.796000,-0.32203390
5.800000,-0.32203390
5.804000,-0.33171913
5.808000,-0.32445521
5.812000,-0.32203390
5.816000,-0.33171913
5.820000,-0.34140436
5.824000,-0.35108959
5.828000,-0.36561743
5.832000,-0.38498789
5.836000,-0.38498789
5.840000,-0.39951574
5.844000,-0.40677966
5.848000,-0.41888620
5.852000,-0.40920097
5.856000,-0.41162228
5.860000,-0.42857143
5.864000,-0.42857143
5.868000,-0.44552058
5.872000,-0.47215496
5.876000,-0.47941889
5.880000,-0.48426150
5.884000,-0.48426150
5.888000,-0.49878935
5.892000,-0.49394673
5.896000,-0.49394673
5.900000,-0.49878935
5.904000,-0.47941889
5.908000,-0.48668281
5.912000,-0.48668281
5.916000,-0.48668281
5.920000,-0.47941889
5.924000,-0.46246973
5.928000,-0.43583535
5.932000,-0.41162228
5.936000,-0.38740920
5.940000,-0.34624697
5.944000,-0.32445521
5.948000,-0.28087167
5.952000,-0.26150121
5.956000,-0.24213075
5.960000,-0.22760291
5.964000,-0.21065375
5.968000,-0.19854722
5.972000,-0.18644068
5.976000,-0.17191283
5.980000,-0.15738499
5.984000,-0.14527845
5.988000,-0.12832930
5.992000,-0.12832930
5.996000,-0.12590799
6.000000,-0.13075061
6.004000,-0.13559322
6.008000,-0.13559322
6.012000,-0.14285714
6.016000,-0.14043584
6.020000,-0.13559322
6.024000,-0.14285714
6.028000,-0.13317191
6.032000,-0.13075061
6.036000,-0.12106538
6.040000,-0.12832930
6.044000,-0.13317191
6.048000,-0.14527845
6.052000,-0.14769976
6.056000,-0.14769976
6.060000,-0.14043584
6.064000,-0.15012107
6.068000,-0.13317191
6.072000,-0.13559322
6.076000,-0.13801453
6.080000,-0.14769976
6.084000,-0.14285714
6.088000,-0.16222760
6.092000,-0.16707022
6.096000,-0.14769976
6.100000,-0.15980630
6.104000,-0.15980630
6.108000,-0.15012107
6.112000,-0.15254237
6.116000,-0.14769976
6.120000,-0.15254237
6.124000,-0.15254237
6.128000,-0.15496368
6.132000,-0.15738499
6.136000,-0.15980630
6.140000,-0.16464891
6.144000,-0.15980630
6.148000,-0.16222760
6.152000,-0.16464891
6.156000,-0.16464891
6.160000,-0.14769976
6.164000,-0.14285714
6.168000,-0.14769976
6.172000,-0.14769976
6.176000,-0.15012107
6.180000,-0.16707022
6.184000,-0.16222760
6.188000,-0.16464891
6.192000,-0.15980630
6.196000,-0.16949153
6.200000,-0.16222760
6.204000,-0.15496368
6.208000,-0.14769976
6.212000,-0.14527845
6.216000,-0.15254237
6.220000,-0.15496368
6.224000,-0.15980630
6.228000,-0.15980630
6.232000,-0.16464891
6.236000,-0.15254237
6.240000,-0.15012107
6.244000,-0.15738499
6.248000,-0.15012107
6.252000,-0.15496368
6.256000,-0.14769976
6.260000,-0.14769976
6.264000,-0.15012107
6.268000,-0.15496368
6.272000,-0.15980630
6.276000,-0.14527845
6.280000,-0.15496368
6.284000,-0.15980630
6.288000,-0.15496368
6.292000,-0.15980630
6.296000,-0.14285714
6.300000,-0.13559322
6.304000,-0.14043584
6.308000,-0.14285714
6.312000,-0.15012107
6.316000,-0.15496368
6.320000,-0.15496368
6.324000,-0.15254237
6.328000,-0.15738499
6.332000,-0.15496368
6.336000,-0.15496368
6.340000,-0.14769976
6.344000,-0.14043584
6.348000,-0.14285714
6.352000,-0.14043584
6.356000,-0.15012107
6.360000,-0.15012107
6.364000,-0.15012107
6.368000,-0.15496368
6.372000,-0.14769976
6.376000,-0.14285714
6.380000,-0.13559322
6.384000,-0.13317191
6.388000,-0.12106538
6.392000,-0.12832930
6.396000,-0.12832930
6.400000,-0.12590799
6.404000,-0.12832930
6.408000,-0.14043584
6.412000,-0.13075061
6.416000,-0.12106538
6.420000,-0.12348668
6.424000,-0.11622276
6.428000,-0.11380145
6.432000,-0.10169492
6.436000,-0.09685230
6.440000,-0.07748184
6.444000,-0.07506053
6.448000,-0.06537530
6.452000,-0.06295400
6.456000,-0.06537530
6.460000,-0.06053269
6.464000,-0.04116223
6.468000,-0.02663438
6.472000,0.00000000
6.476000,0.01452785
6.480000,0.01210654
6.484000,0.01937046
6.488000,0.01452785
6.492000,-0.01694915
6.496000,-0.03874092
6.500000,-0.05326877
6.504000,-0.06779661
6.508000,-0.08958838
6.512000,-0.10411622
6.516000,-0.09685230
6.520000,-0.09927361
6.524000,-0.10895884
6.528000,-0.10895884
6.532000,-0.11864407
6.536000,-0.11138015
6.540000,-0.11138015
6.544000,-0.11622276
6.548000,-0.09927361
6.552000,-0.06295400
6.556000,-0.03389831
6.560000,0.05569007
6.564000,0.21307506
6.568000,0.37530266
6.572000,0.47457627
6.576000,0.56416465
6.580000,0.61259080
6.584000,0.47941889
6.588000,0.05811138
6.592000,-0.38256659
6.596000,-0.66101695
6.600000,-0.74334140
6.604000,-0.70460048
6.608000,-0.61016949
6.612000,-0.47457627
6.616000,-0.34624697
6.620000,-0.24213075
6.624000,-0.19370460
6.628000,-0.16949153
6.632000,-0.14285714
6.636000,-0.13559322
6.640000,-0.13317191
6.644000,-0.11864407
6.648000,-0.11622276
6.652000,-0.10895884
6.656000,-0.11622276
6.660000,-0.10653753
6.664000,-0.09443099
6.668000,-0.10653753
6.672000,-0.11864407
6.676000,-0.11864407
6.680000,-0.12590799
6.684000,-0.12590799
6.688000,-0.12590799
6.692000,-0.11622276
6.696000,-0.10895884
6.700000,-0.09685230
6.704000,-0.10653753
6.708000,-0.10653753
6.712000,-0.11138015
6.716000,-0.12106538
6.720000,-0.13317191
6.724000,-0.13801453
6.728000,-0.13559322
6.732000,-0.13075061
6.736000,-0.12590799
6.740000,-0.12106538
6.744000,-0.12348668
6.748000,-0.13075061
6.752000,-0.13317191
6.756000,-0.14043584
6.760000,-0.16222760
6.764000,-0.16949153
6.768000,-0.16707022
6.772000,-0.17433414
6.776000,-0.17433414
6.780000,-0.17433414
6.784000,-0.17191283
6.788000,-0.17675545
6.792000,-0.17433414
6.796000,-0.19612591
6.800000,-0.21307506
6.804000,-0.23728814
6.808000,-0.23244552
6.812000,-0.24213075
6.816000,-0.24697337
6.820000,-0.25423729
6.824000,-0.24455206
6.828000,-0.24455206
6.832000,-0.24939467
6.836000,-0.24455206
6.840000,-0.24697337
6.844000,-0.26150121
6.848000,-0.26392252
6.852000,-0.24939467
6.856000,-0.26150121
6.860000,-0.26634383
6.864000,-0.26876513
6.868000,-0.25665860
6.872000,-0.24213075
6.876000,-0.22276029
6.880000,-0.20096852
6.884000,-0.18159806
6.888000,-0.17433414
6.892000,-0.15980630
6.896000,-0.13801453
6.900000,-0.11864407
6.904000,-0.10169492
6.908000,-0.08232446
6.912000,-0.05326877
6.916000,-0.02421308
6.920000,0.00242131
6.924000,0.01694915
6.928000,0.02905569
6.932000,0.04116223
6.936000,0.03874092
6.940000,0.03631961
6.944000,0.04842615
6.948000,0.05326877
6.952000,0.05811138
6.956000,0.06537530
6.960000,0.07021792
6.964000,0.07506053
6.968000,0.06537530
6.972000,0.07021792
6.976000,0.06053269
6.980000,0.05811138
6.984000,0.04600484
6.988000,0.05326877
6.992000,0.05084746
6.996000,0.05084746
7.000000,0.04842615
7.004000,0.03874092
7.008000,0.04116223
7.012000,0.06053269
7.016000,0.06295400
7.020000,0.04600484
7.024000,0.05084746
7.028000,0.04842615
7.032000,0.03874092
7.036000,0.04358354
7.040000,0.04358354
7.044000,0.04842615
7.048000,0.06053269
7.052000,0.04842615
7.056000,0.04600484
7.060000,0.04842615
7.064000,0.04358354
7.068000,0.02663438
7.072000,0.03147700
7.076000,0.02663438
7.080000,0.02421308
7.084000,0.02905569
7.088000,0.02663438
7.092000,0.03631961
7.096000,0.03631961
7.100000,0.04600484
7.104000,0.04842615
7.108000,0.04358354
7.112000,0.03874092
7.116000,0.02179177
7.120000,0.02421308
7.124000,0.03147700
7.128000,0.04116223
7.132000,0.03389831
7.136000,0.05326877
7.140000,0.05326877
7.144000,0.05326877
7.148000,0.05084746
7.152000,0.04842615
7.156000,0.04116223
7.160000,0.03874092
7.164000,0.03631961
7.168000,0.03631961
7.172000,0.03874092
7.176000,0.03631961
7.180000,0.03874092
7.184000,0.05326877
7.188000,0.05084746
7.192000,0.04358354
7.196000,0.05326877
7.200000,0.04842615
7.204000,0.03389831
7.208000,0.03389831
7.212000,0.04600484
7.216000,0.03874092
7.220000,0.04600484
7.224000,0.04600484
7.228000,0.04358354
7.232000,0.03874092
7.236000,0.04358354
7.240000,0.05811138
7.244000,0.04842615
7.248000,0.04842615
7.252000,0.04600484
7.256000,0.02905569
7.260000,0.03389831
7.264000,0.03147700
7.268000,0.04600484
7.272000,0.05326877
7.276000,0.05326877
7.280000,0.05569007
7.284000,0.06053269
7.288000,0.07021792
7.292000,0.07990315
7.296000,0.08474576
7.300000,0.08716707
7.304000,0.09200969
7.308000,0.10895884
7.312000,0.11380145
7.316000,0.13317191
7.320000,0.14527845
7.324000,0.13075061
7.328000,0.12348668
7.332000,0.13559322
7.336000,0.11864407
7.340000,0.08474576
7.344000,0.07506053
7.348000,0.05811138
7.352000,0.05084746
7.356000,0.05569007
7.360000,0.05084746
7.364000,0.03147700
7.368000,0.03147700
7.372000,0.01694915
7.376000,0.01937046
7.380000,0.01452785
7.384000,0.02179177
7.388000,0.02421308
7.392000,0.03631961
7.396000,0.05811138
7.400000,0.09200969
7.404000,0.15496368
7.408000,0.26876513
7.412000,0.44067797
7.416000,0.61501211
7.420000,0.71428571
7.424000,0.78208232
7.428000,0.69249395
7.432000,0.32203390
7.436000,-0.15496368
7.440000,-0.47699758
7.444000,-0.59806295
7.448000,-0.56900726
7.452000,-0.49878935
7.456000,-0.42130751
7.460000,-0.29782082
7.464000,-0.19370460
7.468000,-0.12106538
7.472000,-0.07506053
7.476000,-0.06295400
7.480000,-0.02905569
7.484000,-0.01694915
7.488000,-0.00484262
7.492000,0.00242131
7.496000,0.01210654
7.500000,0.00968523
7.504000,0.00726392
7.508000,0.00968523
7.512000,0.00484262
7.516000,0.00968523
7.520000,0.00242131
7.524000,-0.00242131
7.528000,-0.00726392
7.532000,0.00484262
7.536000,0.02179177
7.540000,0.01452785
7.544000,0.00968523
7.548000,0.00242131
7.552000,-0.00726392
7.556000,-0.01937046
7.560000,-0.02905569
7.564000,-0.02179177
7.568000,-0.03874092
7.572000,-0.03631961
7.576000,-0.04116223
7.580000,-0.03389831
7.584000,-0.03874092
7.588000,-0.05326877
7.592000,-0.03874092
7.596000,-0.05569007
7.600000,-0.07021792
7.604000,-0.09200969
7.608000,-0.08474576
7.612000,-0.09200969
7.616000,-0.10169492
7.620000,-0.11622276
7.624000,-0.12590799
7.628000,-0.14285714
7.632000,-0.15012107
7.636000,-0.16707022
7.640000,-0.17433414
7.644000,-0.20338983
7.648000,-0.20823245
7.652000,-0.21791768
7.656000,-0.23970944
7.660000,-0.25181598
7.664000,-0.26150121
7.668000,-0.25907990
7.672000,-0.24939467
7.676000,-0.26876513
7.680000,-0.27845036
7.684000,-0.28571429
7.688000,-0.29782082
7.692000,-0.30266344
7.696000,-0.30024213
7.700000,-0.30992736
7.704000,-0.30024213
7.708000,-0.27602906
7.712000,-0.25665860
7.716000,-0.23002421
7.720000,-0.21065375
7.724000,-0.20096852
7.728000,-0.17675545
7.732000,-0.15012107
7.736000,-0.12832930
7.740000,-0.11380145
7.744000,-0.09443099
7.748000,-0.07263923
7.752000,-0.04116223
7.756000,-0.02421308
7.760000,-0.00242131
7.764000,0.00484262
7.768000,0.00968523
7.772000,0.01694915
7.776000,0.03874092
7.780000,0.04358354
7.784000,0.03874092
7.788000,0.04358354
7.792000,0.04116223
7.796000,0.05326877
7.800000,0.07506053
7.804000,0.07990315
7.808000,0.08958838
7.812000,0.07990315
7.816000,0.07506053
7.820000,0.07506053
7.824000,0.06537530
7.828000,0.07263923
7.832000,0.07263923
7.836000,0.06295400
7.840000,0.07748184
7.844000,0.08232446
7.848000,0.07506053
7.852000,0.07263923
7.856000,0.06537530
7.860000,0.07021792
7.864000,0.06053269
7.868000,0.05084746
7.872000,0.06053269
7.876000,0.04842615
7.880000,0.04842615
7.884000,0.04600484
7.888000,0.05569007
7.892000,0.06295400
7.896000,0.05326877
7.900000,0.04842615
7.904000,0.03631961
7.908000,0.03389831
7.912000,0.03389831
7.916000,0.02905569
7.920000,0.02663438
7.924000,0.04116223
7.928000,0.03389831
7.932000,0.03147700
7.936000,0.04600484
7.940000,0.04116223
7.944000,0.02905569
7.948000,0.02663438
7.952000,0.01694915
7.956000,0.00726392
7.960000,0.01452785
7.964000,0.01937046
7.968000,0.01694915
7.972000,0.01694915
7.976000,0.02421308
7.980000,0.02421308
7.984000,0.02663438
7.988000,0.02179177
7.992000,0.01452785
7.996000,0.01452785
8.000000,0.01452785
8.004000,0.01937046
8.008000,0.01937046
8.012000,0.00968523
8.016000,0.01694915
8.020000,0.01694915
8.024000,0.01210654
8.028000,0.00484262
8.032000,0.00968523
8.036000,0.00484262
8.040000,0.00726392
8.044000,0.00484262
8.048000,-0.00726392
8.052000,-0.00242131
8.056000,0.00242131
8.060000,-0.00484262
8.064000,0.00726392
8.068000,0.00726392
8.072000,0.00726392
8.076000,0.00242131
8.080000,0.00726392
8.084000,-0.00968523
8.088000,-0.00726392
8.092000,0.00000000
8.096000,0.00000000
8.100000,-0.00484262
8.104000,0.00484262
8.108000,0.01452785
8.112000,0.01452785
8.116000,0.00726392
8.120000,0.01694915
8.124000,0.01694915
8.128000,0.03631961
8.132000,0.03874092
8.136000,0.04358354
8.140000,0.04116223
8.144000,0.06779661
8.148000,0.08474576
8.152000,0.08474576
8.156000,0.08474576
8.160000,0.07748184
8.164000,0.07506053
8.168000,0.07990315
8.172000,0.06779661
8.176000,0.05084746
8.180000,0.04358354
8.184000,0.02663438
8.188000,0.00726392
8.192000,0.00968523
8.196000,0.01210654
8.200000,0.00968523
8.204000,-0.00968523
8.208000,-0.02179177
8.212000,-0.03147700
8.216000,-0.04116223
8.220000,-0.03147700
8.224000,-0.02421308
8.228000,-0.02663438
8.232000,-0.01452785
8.236000,0.02905569
8.240000,0.07506053
8.244000,0.15980630
8.248000,0.30266344
8.252000,0.45520581
8.256000,0.54963680
8.260000,0.60290557
8.264000,0.60290557
8.268000,0.36561743
8.272000,-0.09443099
8.276000,-0.48910412
8.280000,-0.67554479
8.284000,-0.69733656
8.288000,-0.63680387
8.292000,-0.54721550
8.296000,-0.41162228
8.300000,-0.27602906
8.304000,-0.17433414
8.308000,-0.13317191
8.312000,-0.10411622
8.316000,-0.07748184
8.320000,-0.05811138
8.324000,-0.05326877
8.328000,-0.05084746
8.332000,-0.04116223
8.336000,-0.04358354
8.340000,-0.03874092
8.344000,-0.03147700
8.348000,-0.03389831
8.352000,-0.04842615
8.356000,-0.06053269
8.360000,-0.06053269
8.364000,-0.06053269
8.368000,-0.06295400
8.372000,-0.05084746
8.376000,-0.05569007
8.380000,-0.04842615
8.384000,-0.05326877
8.388000,-0.06295400
8.392000,-0.06537530
8.396000,-0.07506053
8.400000,-0.08958838
8.404000,-0.08958838
8.408000,-0.08716707
8.412000,-0.09443099
8.416000,-0.08958838
8.420000,-0.09685230
8.424000,-0.10169492
8.428000,-0.10169492
8.432000,-0.12590799
8.436000,-0.13075061
8.440000,-0.14043584
8.444000,-0.15012107
8.448000,-0.15496368
8.452000,-0.16949153
8.456000,-0.18644068
8.460000,-0.18644068
8.464000,-0.19612591
8.468000,-0.21065375
8.472000,-0.22276029
8.476000,-0.24213075
8.480000,-0.25907990
8.484000,-0.26876513
8.488000,-0.28329298
8.492000,-0.29055690
8.496000,-0.30508475
8.500000,-0.31476998
8.504000,-0.32929782
8.508000,-0.33171913
8.512000,-0.35351090
8.516000,-0.36561743
8.520000,-0.36803874
8.524000,-0.38014528
8.528000,-0.39709443
8.532000,-0.39467312
8.536000,-0.39709443
8.540000,-0.39467312
8.544000,-0.38256659
8.548000,-0.38256659
8.552000,-0.35351090
8.556000,-0.33898305
8.560000,-0.32445521
8.564000,-0.29539952
8.568000,-0.28813559
8.572000,-0.26150121
8.576000,-0.23002421
8.580000,-0.20096852
8.584000,-0.17433414
8.588000,-0.16222760
8.592000,-0.13317191
8.596000,-0.09927361
8.600000,-0.07506053
8.604000,-0.06053269
8.608000,-0.04600484
8.612000,-0.04116223
8.616000,-0.02663438
8.620000,-0.03147700
8.624000,-0.02663438
8.628000,-0.00968523
8.632000,0.00000000
8.636000,0.00000000
8.640000,0.00484262
8.644000,0.01210654
8.648000,0.01937046
8.652000,0.00242131
8.656000,0.00242131
8.660000,0.00000000
8.664000,-0.00484262
8.668000,-0.00242131
8.672000,-0.00242131
8.676000,0.00000000
8.680000,0.00242131
8.684000,0.01694915
8.688000,0.01694915
8.692000,0.00726392
8.696000,0.00484262
8.700000,0.00000000
8.704000,-0.00242131
8.708000,-0.00484262
8.712000,-0.01694915
8.716000,-0.00968523
8.720000,-0.01210654
8.724000,-0.01937046
8.728000,-0.00726392
8.732000,-0.00968523
8.736000,-0.01210654
8.740000,-0.01210654
8.744000,-0.01937046
8.748000,-0.02179177
8.752000,-0.02905569
8.756000,-0.03389831
8.760000,-0.02905569
8.764000,-0.03147700
8.768000,-0.03874092
8.772000,-0.01937046
8.776000,-0.01452785
8.780000,-0.02179177
8.784000,-0.01937046
8.788000,-0.02421308
8.792000,-0.02663438
8.796000,-0.03631961
8.800000,-0.03874092
8.804000,-0.04116223
8.808000,-0.04358354
8.812000,-0.03147700
8.816000,-0.02421308
8.820000,-0.02421308
8.824000,-0.01937046
8.828000,-0.02179177
8.832000,-0.03631961
8.836000,-0.04358354
8.840000,-0.05569007
8.844000,-0.04842615
8.848000,-0.04600484
8.852000,-0.04116223
8.856000,-0.04358354
8.860000,-0.04116223
8.864000,-0.03389831
8.868000,-0.02905569
8.872000,-0.03147700
8.876000,-0.03631961
8.880000,-0.04116223
8.884000,-0.05084746
8.888000,-0.04358354
8.892000,-0.04600484
8.896000,-0.04116223
8.900000,-0.04358354
8.904000,-0.03631961
8.908000,-0.03631961
8.912000,-0.03631961
8.916000,-0.03389831
8.920000,-0.04116223
8.924000,-0.04116223
8.928000,-0.04116223
8.932000,-0.04842615
8.936000,-0.05084746
8.940000,-0.05326877
8.944000,-0.04358354
8.948000,-0.03631961
8.952000,-0.03874092
8.956000,-0.02421308
8.960000,-0.02421308
8.964000,-0.01937046
8.968000,-0.01210654
8.972000,-0.00968523
8.976000,0.01210654
8.980000,0.01210654
8.984000,0.01694915
8.988000,0.02663438
8.992000,0.04116223
8.996000,0.04116223
9.000000,0.04116223
9.004000,0.01452785
9.008000,0.01694915
9.012000,0.03147700
9.016000,0.00968523
9.020000,0.00000000
9.024000,-0.01452785
9.028000,-0.02905569
9.032000,-0.04600484
9.036000,-0.04842615
9.040000,-0.04842615
9.044000,-0.05811138
9.048000,-0.07021792
9.052000,-0.07748184
9.056000,-0.08958838
9.060000,-0.09200969
9.064000,-0.09200969
9.068000,-0.09200969
9.072000,-0.07748184
9.076000,-0.04842615
9.080000,-0.02179177
9.084000,0.05569007
9.088000,0.18886199
9.092000,0.35351090
9.096000,0.47941889
9.100000,0.53753027
9.104000,0.59564165
9.108000,0.51573850
9.112000,0.16464891
9.116000,-0.30508475
9.120000,-0.62953995
9.124000,-0.75060533
9.128000,-0.72881356
9.132000,-0.63922518
9.136000,-0.51331719
9.140000,-0.37530266
9.144000,-0.26876513
9.148000,-0.20823245
9.152000,-0.16949153
9.156000,-0.15012107
9.160000,-0.13075061
9.164000,-0.13075061
9.168000,-0.12106538
9.172000,-0.12590799
9.176000,-0.11380145
9.180000,-0.11380145
9.184000,-0.11864407
9.188000,-0.12590799
9.192000,-0.12590799
9.196000,-0.13317191
9.200000,-0.12590799
9.204000,-0.14285714
9.208000,-0.13559322
9.212000,-0.14043584
9.216000,-0.13559322
9.220000,-0.14043584
9.224000,-0.13801453
9.228000,-0.13801453
9.232000,-0.14769976
9.236000,-0.14769976
9.240000,-0.15496368
9.244000,-0.17191283
9.248000,-0.17191283
9.252000,-0.17433414
9.256000,-0.17917676
9.260000,-0.18401937
9.264000,-0.18401937
9.268000,-0.18159806
9.272000,-0.17917676
9.276000,-0.18401937
9.280000,-0.19370460
9.284000,-0.21549637
9.288000,-0.21791768
9.292000,-0.23728814
9.296000,-0.24939467
9.300000,-0.26392252
9.304000,-0.27118644
9.308000,-0.27602906
9.312000,-0.27602906
9.316000,-0.29297821
9.320000,-0.30508475
9.324000,-0.32203390
9.328000,-0.34624697
9.332000,-0.36077482
9.336000,-0.38740920
9.340000,-0.39225182
9.344000,-0.40193705
9.348000,-0.40920097
9.352000,-0.41162228
9.356000,-0.43099274
9.360000,-0.44067797
9.364000,-0.44552058
9.368000,-0.44552058
9.372000,-0.46489104
9.376000,-0.46973366
9.380000,-0.47215496
9.384000,-0.47941889
9.388000,-0.48184019
9.392000,-0.45762712
9.396000,-0.43099274
9.400000,-0.40677966
9.404000,-0.39467312
9.408000,-0.37530266
9.412000,-0.34624697
9.416000,-0.33171913
9.420000,-0.30992736
9.424000,-0.28571429
9.428000,-0.24213075
9.432000,-0.21307506
9.436000,-0.18401937
9.440000,-0.15012107
9.444000,-0.12832930
9.448000,-0.11138015
9.452000,-0.09443099
9.456000,-0.09927361
9.460000,-0.10653753
9.464000,-0.08716707
9.468000,-0.08716707
9.472000,-0.08474576
9.476000,-0.07748184
9.480000,-0.07021792
9.484000,-0.05569007
9.488000,-0.05326877
9.492000,-0.06053269
9.496000,-0.06537530
9.500000,-0.07263923
9.504000,-0.07748184
9.508000,-0.07748184
9.512000,-0.07748184
9.516000,-0.06779661
9.520000,-0.08232446
9.524000,-0.08474576
9.528000,-0.07021792
9.532000,-0.07021792
9.536000,-0.07263923
9.540000,-0.07506053
9.544000,-0.07748184
9.548000,-0.07748184
9.552000,-0.08716707
9.556000,-0.09927361
9.560000,-0.09200969
9.564000,-0.09200969
9.568000,-0.09200969
9.572000,-0.08474576
9.576000,-0.07990315
9.580000,-0.08474576
9.584000,-0.08474576
9.588000,-0.09685230
9.592000,-0.08958838
9.596000,-0.09685230
9.600000,-0.09685230
9.604000,-0.09685230
9.608000,-0.09927361
9.612000,-0.10169492
9.616000,-0.09927361
9.620000,-0.10169492
9.624000,-0.09685230
9.628000,-0.10169492
9.632000,-0.10895884
9.636000,-0.10895884
9.640000,-0.12106538
9.644000,-0.12348668
9.648000,-0.10411622
9.652000,-0.10653753
9.656000,-0.11138015
9.660000,-0.09685230
9.664000,-0.10653753
9.668000,-0.10169492
9.672000,-0.10169492
9.676000,-0.10169492
9.680000,-0.11864407
9.684000,-0.11138015
9.688000,-0.10895884
9.692000,-0.11622276
9.696000,-0.10653753
9.700000,-0.10653753
9.704000,-0.09685230
9.708000,-0.10411622
9.712000,-0.10653753
9.716000,-0.11138015
9.720000,-0.10411622
9.724000,-0.10653753
9.728000,-0.12106538
9.732000,-0.12348668
9.736000,-0.11622276
9.740000,-0.11138015
9.744000,-0.10653753
9.748000,-0.10169492
9.752000,-0.10169492
9.756000,-0.11138015
9.760000,-0.11138015
9.764000,-0.11138015
9.768000,-0.11622276
9.772000,-0.11864407
9.776000,-0.10653753
9.780000,-0.11380145
9.784000,-0.10653753
9.788000,-0.09685230
9.792000,-0.08232446
9.796000,-0.06537530
9.800000,-0.04116223
9.804000,-0.03874092
9.808000,-0.04842615
9.812000,-0.03389831
9.816000,-0.04358354
9.820000,-0.03631961
9.824000,-0.02905569
9.828000,-0.03874092
9.832000,-0.03874092
9.836000,-0.01937046
9.840000,-0.01694915
9.844000,-0.03389831
9.848000,-0.03389831
9.852000,-0.05326877
9.856000,-0.07748184
9.860000,-0.08716707
9.864000,-0.10653753
9.868000,-0.12348668
9.872000,-0.12590799
9.876000,-0.13075061
9.880000,-0.13559322
9.884000,-0.12348668
9.888000,-0.12106538
9.892000,-0.11138015
9.896000,-0.11138015
9.900000,-0.10169492
9.904000,-0.07506053
9.908000,-0.04358354
9.912000,0.03147700
9.916000,0.18401937
9.920000,0.35351090
9.924000,0.46004843
9.928000,0.53995157
9.932000,0.58353511
9.936000,0.40677966
9.940000,-0.04600484
9.944000,-0.46973366
9.948000,-0.72639225
9.952000,-0.77239709
9.956000,-0.73607748
9.960000,-0.63196126
9.964000,-0.47941889
9.968000,-0.34624697
9.972000,-0.25907990
9.976000,-0.19612591
9.980000,-0.16949153
9.984000,-0.15254237
9.988000,-0.15496368
9.992000,-0.15738499
9.996000,-0.15738499
10.000000,-0.15738499
10.004000,-0.15738499
10.008000,-0.14527845
10.012000,-0.13559322
10.016000,-0.13559322
10.020000,-0.13075061
10.024000,-0.14043584
10.028000,-0.14285714
10.032000,-0.15012107
10.036000,-0.15496368
10.040000,-0.15496368
10.044000,-0.17191283
10.048000,-0.17917676
10.052000,-0.17675545
10.056000,-0.16464891
10.060000,-0.15980630
10.064000,-0.15980630
10.068000,-0.16222760
10.072000,-0.17191283
10.076000,-0.17675545
10.080000,-0.18886199
10.084000,-0.18644068
10.088000,-0.18886199
10.092000,-0.18401937
10.096000,-0.19854722
10.100000,-0.20581114
10.104000,-0.21307506
10.108000,-0.21791768
10.112000,-0.21791768
10.116000,-0.22518160
10.120000,-0.23486683
10.124000,-0.26150121
10.128000,-0.27360775
10.132000,-0.28813559
10.136000,-0.30024213
10.140000,-0.31961259
10.144000,-0.31961259
10.148000,-0.31961259
10.152000,-0.32445521
10.156000,-0.34624697
10.160000,-0.36319613
10.164000,-0.37772397
10.168000,-0.39951574
10.172000,-0.41404358
10.176000,-0.42130751
10.180000,-0.43583535
10.184000,-0.43583535
10.188000,-0.43825666
10.192000,-0.43583535
10.196000,-0.45036320
10.200000,-0.45036320
10.204000,-0.45520581
10.208000,-0.46489104
10.212000,-0.45520581
10.216000,-0.44067797
10.220000,-0.42857143
10.224000,-0.41162228
10.228000,-0.38740920
10.232000,-0.35351090
10.236000,-0.31961259
10.240000,-0.28329298
10.244000,-0.25423729
10.248000,-0.23244552
10.252000,-0.20338983
10.256000,-0.18159806
10.260000,-0.16464891
10.264000,-0.14285714
10.268000,-0.11864407
10.272000,-0.09927361
10.276000,-0.09200969
10.280000,-0.07263923
10.284000,-0.06053269
10.288000,-0.06295400
10.292000,-0.05084746
10.296000,-0.04842615
10.300000,-0.04842615
10.304000,-0.05084746
10.308000,-0.05811138
10.312000,-0.06295400
10.316000,-0.06295400
10.320000,-0.05569007
10.324000,-0.05811138
10.328000,-0.04600484
10.332000,-0.04358354
10.336000,-0.04358354
10.340000,-0.04358354
10.344000,-0.05811138
10.348000,-0.06537530
10.352000,-0.06779661
10.356000,-0.06779661
10.360000,-0.06295400
10.364000,-0.06295400
10.368000,-0.06779661
10.372000,-0.06779661
10.376000,-0.05811138
10.380000,-0.06779661
10.384000,-0.06537530
10.388000,-0.07263923
10.392000,-0.07021792
10.396000,-0.07748184
10.400000,-0.08232446
10.404000,-0.08474576
10.408000,-0.09200969
10.412000,-0.09200969
10.416000,-0.08232446
10.420000,-0.07748184
10.424000,-0.08232446
10.428000,-0.08474576
10.432000,-0.08716707
10.436000,-0.09443099
10.440000,-0.09927361
10.444000,-0.11138015
10.448000,-0.09685230
10.452000,-0.09927361
10.456000,-0.09927361
10.460000,-0.10169492
10.464000,-0.09443099
10.468000,-0.09200969
10.472000,-0.08232446
10.476000,-0.09200969
10.480000,-0.10411622
10.484000,-0.10653753
10.488000,-0.09927361
10.492000,-0.10169492
10.496000,-0.09685230
10.500000,-0.09443099
10.504000,-0.08958838
10.508000,-0.09443099
10.512000,-0.08958838
10.516000,-0.08474576
10.520000,-0.10895884
10.524000,-0.09927361
10.528000,-0.10169492
10.532000,-0.10411622
10.536000,-0.11138015
10.540000,-0.11138015
10.544000,-0.10895884
10.548000,-0.09685230
10.552000,-0.09443099
10.556000,-0.08474576
10.560000,-0.08716707
10.564000,-0.07990315
10.568000,-0.07748184
10.572000,-0.09200969
10.576000,-0.09200969
10.580000,-0.10169492
10.584000,-0.10169492
10.588000,-0.10169492
10.592000,-0.08958838
10.596000,-0.08716707
10.600000,-0.08716707
10.604000,-0.08232446
10.608000,-0.07748184
10.612000,-0.07748184
10.616000,-0.06295400
10.620000,-0.06537530
10.624000,-0.04600484
10.628000,-0.02905569
10.632000,-0.02663438
10.636000,-0.01937046
10.640000,-0.01452785
10.644000,-0.00242131
10.648000,0.00484262
10.652000,-0.00726392
10.656000,-0.01694915
10.660000,-0.01210654
10.664000,-0.01937046
10.668000,-0.04116223
10.672000,-0.05811138
10.676000,-0.05811138
10.680000,-0.05084746
10.684000,-0.05811138
10.688000,-0.07263923
10.692000,-0.07990315
10.696000,-0.08716707
10.700000,-0.10653753
10.704000,-0.12106538
10.708000,-0.11864407
10.712000,-0.11864407
10.716000,-0.11138015
10.720000,-0.10895884
10.724000,-0.08474576
10.728000,-0.05084746
10.732000,-0.02421308
10.736000,0.04358354
10.740000,0.18159806
10.744000,0.33898305
10.748000,0.46004843
10.752000,0.54721550
10.756000,0.59322034
10.760000,0.45520581
10.764000,0.01452785
10.768000,-0.42857143
10.772000,-0.70944310
10.776000,-0.78450363
10.780000,-0.75060533
10.784000,-0.66343826
10.788000,-0.52542373
10.792000,-0.38983051
10.796000,-0.28087167
10.800000,-0.22518160
10.804000,-0.18886199
10.808000,-0.15012107
10.812000,-0.14527845
10.816000,-0.13317191
10.820000,-0.11864407
10.824000,-0.10653753
10.828000,-0.10169492
10.832000,-0.10653753
10.836000,-0.12106538
10.840000,-0.12590799
10.844000,-0.13317191
10.848000,-0.11622276
10.852000,-0.13317191
10.856000,-0.13559322
10.860000,-0.12590799
10.864000,-0.12590799
10.868000,-0.13075061
10.872000,-0.12348668
10.876000,-0.13317191
10.880000,-0.13559322
10.884000,-0.14043584
10.888000,-0.13317191
10.892000,-0.13317191
10.896000,-0.14285714
10.900000,-0.14769976
10.904000,-0.14769976
10.908000,-0.14527845
10.912000,-0.15496368
10.916000,-0.13801453
10.920000,-0.13559322
10.924000,-0.15496368
10.928000,-0.17675545
10.932000,-0.18401937
10.936000,-0.20096852
10.940000,-0.19370460
10.944000,-0.20096852
10.948000,-0.21307506
10.952000,-0.21549637
10.956000,-0.22760291
10.960000,-0.24939467
10.964000,-0.25181598
10.968000,-0.26392252
10.972000,-0.28329298
10.976000,-0.30992736
10.980000,-0.32203390
10.984000,-0.33898305
10.988000,-0.34866828
10.992000,-0.36077482
10.996000,-0.34866828
11.000000,-0.35108959
11.004000,-0.36319613
11.008000,-0.38014528
11.012000,-0.38498789
11.016000,-0.40677966
11.020000,-0.40435835
11.024000,-0.39951574
11.028000,-0.40677966
11.032000,-0.40435835
11.036000,-0.37288136
11.040000,-0.33656174
11.044000,-0.30992736
11.048000,-0.30024213
11.052000,-0.26876513
11.056000,-0.24697337
11.060000,-0.21549637
11.064000,-0.20096852
11.068000,-0.15980630
11.072000,-0.14769976
11.076000,-0.13317191
11.080000,-0.11864407
11.084000,-0.08716707
11.088000,-0.06779661
11.092000,-0.04600484
11.096000,-0.03389831
11.100000,-0.04358354
11.104000,-0.03874092
11.108000,-0.03631961
11.112000,-0.04600484
11.116000,-0.06779661
11.120000,-0.05326877
11.124000,-0.05569007
11.128000,-0.04358354
11.132000,-0.03874092
11.136000,-0.04842615
11.140000,-0.05569007
11.144000,-0.05084746
11.148000,-0.04842615
11.152000,-0.06537530
11.156000,-0.05811138
11.160000,-0.05811138
11.164000,-0.07506053
11.168000,-0.07748184
11.172000,-0.07748184
11.176000,-0.06295400
11.180000,-0.05811138
11.184000,-0.06537530
11.188000,-0.06053269
11.192000,-0.07021792
11.196000,-0.07263923
11.200000,-0.07990315
11.204000,-0.08474576
11.208000,-0.08474576
11.212000,-0.08232446
11.216000,-0.08474576
11.220000,-0.07506053
11.224000,-0.07748184
11.228000,-0.08232446
11.232000,-0.07748184
11.236000,-0.08474576
11.240000,-0.08232446
11.244000,-0.10169492
11.248000,-0.09443099
11.252000,-0.08958838
11.256000,-0.07748184
11.260000,-0.08232446
11.264000,-0.08474576
11.268000,-0.07021792
11.272000,-0.04842615
11.276000,-0.02663438
11.280000,-0.00242131
11.284000,0.09443099
11.288000,0.25181598
11.292000,0.42857143
11.296000,0.54963680
11.300000,0.64406780
11.304000,0.61501211
11.308000,0.29782082
11.312000,-0.19370460
11.316000,-0.58111380
11.320000,-0.73607748
11.324000,-0.69491525
11.328000,-0.61259080
11.332000,-0.47457627
11.336000,-0.31961259
11.340000,-0.18886199
11.344000,-0.10895884
11.348000,-0.06295400
11.352000,-0.03874092
11.356000,-0.02905569
11.360000,-0.05084746
11.364000,-0.04358354
11.368000,-0.06537530
11.372000,-0.05811138
11.376000,-0.05084746
11.380000,-0.04842615
11.384000,-0.04600484
11.388000,-0.05326877
11.392000,-0.04600484
11.396000,-0.04600484
11.400000,-0.05569007
11.404000,-0.07021792
11.408000,-0.06537530
11.412000,-0.07263923
11.416000,-0.09685230
11.420000,-0.11622276
11.424000,-0.12106538
11.428000,-0.11864407
11.432000,-0.11380145
11.436000,-0.11864407
11.440000,-0.12590799
11.444000,-0.11622276
11.448000,-0.10895884
11.452000,-0.10653753
11.456000,-0.11138015
11.460000,-0.13559322
11.464000,-0.14527845
11.468000,-0.15012107
11.472000,-0.16707022
11.476000,-0.16949153
11.480000,-0.17917676
11.484000,-0.18886199
11.488000,-0.18886199
11.492000,-0.19612591
11.496000,-0.18886199
11.500000,-0.21307506
11.504000,-0.21065375
11.508000,-0.23002421
11.512000,-0.25423729
11.516000,-0.27360775
11.520000,-0.28329298
11.524000,-0.28087167
11.528000,-0.28571429
11.532000,-0.30024213
11.536000,-0.30024213
11.540000,-0.29782082
11.544000,-0.29539952
11.548000,-0.31961259
11.552000,-0.32203390
11.556000,-0.30508475
11.560000,-0.29539952
11.564000,-0.26634383
11.568000,-0.23244552
11.572000,-0.20338983
11.576000,-0.15012107
11.580000,-0.10895884
11.584000,-0.08474576
11.588000,-0.04358354
11.592000,-0.01452785
11.596000,-0.02179177
11.600000,-0.01452785
11.604000,0.00484262
11.608000,0.01694915
11.612000,0.01694915
11.616000,0.02905569
11.620000,0.03631961
11.624000,0.03389831
11.628000,0.04358354
11.632000,0.04358354
11.636000,0.03147700
11.640000,0.01937046
11.644000,0.00242131
11.648000,-0.00968523
11.652000,-0.02421308
11.656000,-0.02905569
11.660000,-0.02663438
11.664000,-0.04116223
11.668000,-0.04116223
11.672000,-0.05084746
11.676000,-0.04842615
11.680000,-0.05811138
11.684000,-0.07748184
11.688000,-0.08716707
11.692000,-0.08232446
11.696000,-0.08958838
11.700000,-0.08958838
11.704000,-0.08958838
11.708000,-0.08716707
11.712000,-0.08716707
11.716000,-0.09685230
11.720000,-0.10169492
11.724000,-0.10653753
11.728000,-0.10411622
11.732000,-0.10411622
11.736000,-0.11138015
11.740000,-0.12106538
11.744000,-0.12590799
11.748000,-0.11622276
11.752000,-0.12106538
11.756000,-0.11380145
11.760000,-0.11138015
11.764000,-0.12348668
11.768000,-0.13801453
11.772000,-0.15012107
11.776000,-0.15496368
11.780000,-0.15980630
11.784000,-0.15496368
11.788000,-0.14527845
11.792000,-0.13801453
11.796000,-0.12348668
11.800000,-0.10411622
11.804000,-0.08958838
11.808000,-0.07748184
11.812000,-0.05569007
11.816000,-0.00484262
11.820000,0.03631961
11.824000,0.11380145
11.828000,0.25423729
11.832000,0.43583535
11.836000,0.56174334
11.840000,0.64891041
11.844000,0.65617433
11.848000,0.43099274
11.852000,-0.04600484
11.856000,-0.47941889
11.860000,-0.69491525
11.864000,-0.73365617
11.868000,-0.67554479
11.872000,-0.56658596
11.876000,-0.41404358
11.880000,-0.28087167
11.884000,-0.19128329
11.888000,-0.14527845
11.892000,-0.11864407
11.896000,-0.09927361
11.900000,-0.08232446
11.904000,-0.09200969
11.908000,-0.09200969
11.912000,-0.09927361
11.916000,-0.10895884
11.920000,-0.11138015
11.924000,-0.11138015
11.928000,-0.11622276
11.932000,-0.10411622
11.936000,-0.10411622
11.940000,-0.10169492
11.944000,-0.11622276
11.948000,-0.11380145
11.952000,-0.11864407
11.956000,-0.12590799
11.960000,-0.12832930
11.964000,-0.13317191
11.968000,-0.13559322
11.972000,-0.13075061
11.976000,-0.13075061
11.980000,-0.13317191
11.984000,-0.13559322
11.988000,-0.14043584
11.992000,-0.15980630
11.996000,-0.17191283
12.000000,-0.18644068
12.004000,-0.20096852
12.008000,-0.22276029
12.012000,-0.23244552
12.016000,-0.24455206
12.020000,-0.25181598
12.024000,-0.27845036
12.028000,-0.28813559
12.032000,-0.30024213
12.036000,-0.30508475
12.040000,-0.31961259
12.044000,-0.32929782
12.048000,-0.31234867
12.052000,-0.30024213
12.056000,-0.29297821
12.060000,-0.28571429
12.064000,-0.28087167
12.068000,-0.27602906
12.072000,-0.29055690
12.076000,-0.29782082
12.080000,-0.28571429
12.084000,-0.29782082
12.088000,-0.28571429
12.092000,-0.27845036
12.096000,-0.25181598
12.100000,-0.25907990
12.104000,-0.25181598
12.108000,-0.23728814
12.112000,-0.20823245
12.116000,-0.18886199
12.120000,-0.16949153
12.124000,-0.16949153
12.128000,-0.15496368
12.132000,-0.12832930
12.136000,-0.10411622
12.140000,-0.09200969
12.144000,-0.08958838
12.148000,-0.07506053
12.152000,-0.06295400
12.156000,-0.03631961
12.160000,-0.02663438
12.164000,-0.02421308
12.168000,-0.01694915
12.172000,-0.02421308
12.176000,-0.02179177
12.180000,-0.02905569
12.184000,-0.03389831
12.188000,-0.03389831
12.192000,-0.03874092
12.196000,-0.02663438
12.200000,-0.02421308
12.204000,-0.02905569
12.208000,-0.03389831
12.212000,-0.03631961
12.216000,-0.04600484
12.220000,-0.04842615
12.224000,-0.06053269
12.228000,-0.06053269
12.232000,-0.05811138
12.236000,-0.05811138
12.240000,-0.06779661
12.244000,-0.06779661
12.248000,-0.08474576
12.252000,-0.08958838
12.256000,-0.10169492
12.260000,-0.10895884
12.264000,-0.12348668
12.268000,-0.13317191
12.272000,-0.14285714
12.276000,-0.14527845
12.280000,-0.13317191
12.284000,-0.12106538
12.288000,-0.12832930
12.292000,-0.12832930
12.296000,-0.12832930
12.300000,-0.12106538
12.304000,-0.09200969
12.308000,-0.06053269
12.312000,-0.02905569
12.316000,0.03389831
12.320000,0.13317191
12.324000,0.24697337
12.328000,0.35351090
12.332000,0.44067797
12.336000,0.51331719
12.340000,0.39951574
12.344000,-0.01937046
12.348000,-0.50121065
12.352000,-0.76997579
12.356000,-0.80871671
12.360000,-0.69007264
12.364000,-0.48184019
12.368000,-0.30508475
12.372000,-0.19370460
12.376000,-0.12590799
12.380000,-0.09200969
12.384000,-0.06295400
12.388000,-0.07748184
12.392000,-0.08474576
12.396000,-0.09685230
12.400000,-0.08232446
12.404000,-0.08716707
12.408000,-0.09200969
12.412000,-0.09443099
12.416000,-0.08958838
12.420000,-0.08474576
12.424000,-0.07748184
12.428000,-0.08474576
12.432000,-0.08232446
12.436000,-0.08716707
12.440000,-0.10169492
12.444000,-0.11622276
12.448000,-0.10653753
12.452000,-0.11380145
12.456000,-0.10895884
12.460000,-0.10895884
12.464000,-0.11622276
12.468000,-0.11380145
12.472000,-0.12590799
12.476000,-0.13801453
12.480000,-0.16222760
12.484000,-0.16949153
12.488000,-0.18886199
12.492000,-0.21549637
12.496000,-0.23002421
12.500000,-0.23728814
12.504000,-0.24455206
12.508000,-0.24213075
12.512000,-0.24697337
12.516000,-0.25423729
12.520000,-0.25907990
12.524000,-0.27602906
12.528000,-0.29055690
12.532000,-0.30266344
12.536000,-0.30992736
12.540000,-0.30992736
12.544000,-0.30750605
12.548000,-0.28087167
12.552000,-0.26392252
12.556000,-0.27118644
12.560000,-0.28813559
12.564000,-0.28813559
12.568000,-0.30508475
12.572000,-0.30750605
12.576000,-0.30992736
12.580000,-0.31719128
12.584000,-0.32203390
12.588000,-0.32203390
12.592000,-0.30992736
12.596000,-0.29055690
12.600000,-0.27118644
12.604000,-0.24697337
12.608000,-0.23244552
12.612000,-0.21549637
12.616000,-0.19854722
12.620000,-0.17433414
12.624000,-0.13801453
12.628000,-0.11622276
12.632000,-0.08716707
12.636000,-0.06537530
12.640000,-0.04842615
12.644000,-0.03147700
12.648000,-0.02905569
12.652000,-0.01694915
12.656000,-0.01937046
12.660000,-0.03147700
12.664000,-0.02421308
12.668000,-0.03389831
12.672000,-0.04116223
12.676000,-0.05569007
12.680000,-0.03147700
12.684000,-0.03631961
12.688000,-0.03874092
12.692000,-0.04116223
12.696000,-0.06053269
12.700000,-0.05569007
12.704000,-0.05811138
12.708000,-0.07021792
12.712000,-0.05084746
12.716000,-0.01452785
12.720000,0.04116223
12.724000,0.11138015
12.728000,0.23728814
12.732000,0.35593220
12.736000,0.47941889
12.740000,0.57142857
12.744000,0.65133172
12.748000,0.48184019
12.752000,-0.03147700
12.756000,-0.53268765
12.760000,-0.71428571
12.764000,-0.71186441
12.768000,-0.62711864
12.772000,-0.46246973
12.776000,-0.28571429
12.780000,-0.15496368
12.784000,-0.09685230
12.788000,-0.05326877
12.792000,-0.04358354
12.796000,-0.03631961
12.800000,-0.03874092
12.804000,-0.04600484
12.808000,-0.05084746
12.812000,-0.04600484
12.816000,-0.04358354
12.820000,-0.04600484
12.824000,-0.04600484
12.828000,-0.03631961
12.832000,-0.02905569
12.836000,-0.05326877
12.840000,-0.07021792
12.844000,-0.07748184
12.848000,-0.09200969
12.852000,-0.09443099
12.856000,-0.08958838
12.860000,-0.07990315
12.864000,-0.08232446
12.868000,-0.07748184
12.872000,-0.09200969
12.876000,-0.10169492
12.880000,-0.09927361
12.884000,-0.11380145
12.888000,-0.12590799
12.892000,-0.13317191
12.896000,-0.12590799
12.900000,-0.14043584
12.904000,-0.13075061
12.908000,-0.14285714
12.912000,-0.15738499
12.916000,-0.17191283
12.920000,-0.17433414
12.924000,-0.20338983
12.928000,-0.23486683
12.932000,-0.25423729
12.936000,-0.25907990
12.940000,-0.27118644
12.944000,-0.26876513
12.948000,-0.27118644
12.952000,-0.27845036
12.956000,-0.28087167
12.960000,-0.27845036
12.964000,-0.28087167
12.968000,-0.27602906
12.972000,-0.28087167
12.976000,-0.27360775
12.980000,-0.25907990
12.984000,-0.24697337
12.988000,-0.21307506
12.992000,-0.19612591
12.996000,-0.15738499
13.000000,-0.14043584
13.004000,-0.11864407
13.008000,-0.09685230
13.012000,-0.07021792
13.016000,-0.04116223
13.020000,-0.01694915
13.024000,0.02421308
13.028000,0.04116223
13.032000,0.03874092
13.036000,0.04116223
13.040000,0.05326877
13.044000,0.05326877
13.048000,0.05326877
13.052000,0.04358354
13.056000,0.02663438
13.060000,0.01694915
13.064000,0.00726392
13.068000,0.00484262
13.072000,-0.00968523
13.076000,-0.00484262
13.080000,-0.01452785
13.084000,-0.02905569
13.088000,-0.02421308
13.092000,-0.02905569
13.096000,-0.02905569
13.100000,-0.04358354
13.104000,-0.04116223
13.108000,-0.03631961
13.112000,-0.05569007
13.116000,-0.06779661
13.120000,-0.05811138
13.124000,-0.07506053
13.128000,-0.07021792
13.132000,-0.06295400
13.136000,-0.05326877
13.140000,-0.05326877
13.144000,-0.05326877
13.148000,-0.05811138
13.152000,-0.06053269
13.156000,-0.07263923
13.160000,-0.05811138
13.164000,-0.07021792
13.168000,-0.06779661
13.172000,-0.07263923
13.176000,-0.06779661
13.180000,-0.05326877
13.184000,-0.04842615
13.188000,-0.05326877
13.192000,-0.02179177
13.196000,0.08474576
13.200000,0.24455206
13.204000,0.36319613
13.208000,0.43825666
13.212000,0.42372881
13.216000,0.14527845
13.220000,-0.34382567
13.224000,-0.72397094
13.228000,-0.89830508
13.232000,-0.87651332
13.236000,-0.76271186
13.240000,-0.56900726
13.244000,-0.38014528
13.248000,-0.23244552
13.252000,-0.15738499
13.256000,-0.09927361
13.260000,-0.05811138
13.264000,-0.04842615
13.268000,-0.05326877
13.272000,-0.05084746
13.276000,-0.05326877
13.280000,-0.05811138
13.284000,-0.06053269
13.288000,-0.07506053
13.292000,-0.07748184
13.296000,-0.08474576
13.300000,-0.08716707
13.304000,-0.08474576
13.308000,-0.08474576
13.312000,-0.08474576
13.316000,-0.08716707
13.320000,-0.09200969
13.324000,-0.09685230
13.328000,-0.10169492
13.332000,-0.12106538
13.336000,-0.12348668
13.340000,-0.12348668
13.344000,-0.13317191
13.348000,-0.12590799
13.352000,-0.12590799
13.356000,-0.13317191
13.360000,-0.13559322
13.364000,-0.14285714
13.368000,-0.15496368
13.372000,-0.16707022
13.376000,-0.16949153
13.380000,-0.17433414
13.384000,-0.18401937
13.388000,-0.18401937
13.392000,-0.20581114
13.396000,-0.21307506
13.400000,-0.20823245
13.404000,-0.21307506
13.408000,-0.21791768
13.412000,-0.22760291
13.416000,-0.23002421
13.420000,-0.24455206
13.424000,-0.24213075
13.428000,-0.24939467
13.432000,-0.24939467
13.436000,-0.24697337
13.440000,-0.24455206
13.444000,-0.24697337
13.448000,-0.23970944
13.452000,-0.23486683
13.456000,-0.22760291
13.460000,-0.22518160
13.464000,-0.24213075
13.468000,-0.23486683
13.472000,-0.22033898
13.476000,-0.20581114
13.480000,-0.19128329
13.484000,-0.16707022
13.488000,-0.12590799
13.492000,-0.08232446
13.496000,-0.03874092
13.500000,-0.01452785
13.504000,0.00242131
13.508000,0.00726392
13.512000,0.00726392
13.516000,0.00726392
13.520000,0.00484262
13.524000,0.01210654
13.528000,0.01452785
13.532000,0.00968523
13.536000,0.00726392
13.540000,0.00484262
13.544000,-0.00484262
13.548000,-0.01452785
13.552000,-0.02905569
13.556000,-0.05084746
13.560000,-0.05084746
13.564000,-0.06779661
13.568000,-0.07021792
13.572000,-0.06779661
13.576000,-0.07748184
13.580000,-0.06779661
13.584000,-0.07748184
13.588000,-0.08232446
13.592000,-0.09927361
13.596000,-0.08958838
13.600000,-0.11138015
13.604000,-0.10653753
13.608000,-0.11622276
13.612000,-0.11380145
13.616000,-0.10895884
13.620000,-0.10895884
13.624000,-0.10411622
13.628000,-0.09200969
13.632000,-0.10653753
13.636000,-0.10653753
13.640000,-0.10895884
13.644000,-0.13075061
13.648000,-0.14043584
13.652000,-0.14769976
13.656000,-0.14769976
13.660000,-0.11138015
13.664000,0.00000000
13.668000,0.16222760
13.672000,0.29055690
13.676000,0.39467312
13.680000,0.43099274
13.684000,0.24455206
13.688000,-0.21065375
13.692000,-0.63438257
13.696000,-0.86440678
13.700000,-0.88861985
13.704000,-0.78692494
13.708000,-0.60774818
13.712000,-0.42130751
13.716000,-0.28329298
13.720000,-0.20823245
13.724000,-0.15496368
13.728000,-0.13317191
13.732000,-0.13559322
13.736000,-0.13075061
13.740000,-0.13317191
13.744000,-0.14285714
13.748000,-0.13317191
13.752000,-0.12832930
13.756000,-0.13075061
13.760000,-0.12348668
13.764000,-0.12106538
13.768000,-0.12832930
13.772000,-0.12832930
13.776000,-0.13559322
13.780000,-0.13317191
13.784000,-0.14769976
13.788000,-0.15012107
13.792000,-0.14769976
13.796000,-0.15012107
13.800000,-0.14769976
13.804000,-0.14043584
13.808000,-0.14769976
13.812000,-0.14285714
13.816000,-0.15254237
13.820000,-0.16707022
13.824000,-0.17917676
13.828000,-0.18644068
13.832000,-0.18886199
13.836000,-0.20096852
13.840000,-0.20581114
13.844000,-0.20823245
13.848000,-0.21549637
13.852000,-0.22518160
13.856000,-0.22760291
13.860000,-0.23970944
13.864000,-0.24455206
13.868000,-0.25423729
13.872000,-0.27118644
13.876000,-0.29297821
13.880000,-0.29297821
13.884000,-0.29539952
13.888000,-0.29539952
13.892000,-0.30508475
13.896000,-0.30024213
13.900000,-0.30266344
13.904000,-0.30750605
13.908000,-0.30992736
13.912000,-0.30024213
13.916000,-0.30992736
13.920000,-0.30992736
13.924000,-0.30992736
13.928000,-0.29539952
13.932000,-0.28813559
13.936000,-0.26876513
13.940000,-0.24213075
13.944000,-0.21549637
13.948000,-0.18401937
13.952000,-0.16949153
13.956000,-0.15980630
13.960000,-0.13317191
13.964000,-0.11864407
13.968000,-0.11138015
13.972000,-0.08474576
13.976000,-0.06779661
13.980000,-0.04600484
13.984000,-0.03147700
13.988000,-0.02179177
13.992000,-0.01210654
13.996000,-0.00726392
14.000000,-0.00726392
14.004000,-0.02179177
14.008000,-0.04842615
14.012000,-0.03874092
14.016000,-0.03631961
14.020000,-0.03874092
14.024000,-0.03389831
14.028000,-0.03874092
14.032000,-0.04116223
14.036000,-0.04600484
14.040000,-0.05569007
14.044000,-0.06053269
14.048000,-0.06295400
14.052000,-0.07021792
14.056000,-0.07748184
14.060000,-0.07021792
14.064000,-0.07748184
14.068000,-0.07263923
14.072000,-0.07506053
14.076000,-0.07263923
14.080000,-0.06537530
14.084000,-0.07021792
14.088000,-0.06779661
14.092000,-0.08474576
14.096000,-0.08716707
14.100000,-0.08716707
14.104000,-0.09685230
14.108000,-0.09685230
14.112000,-0.09685230
14.116000,-0.08716707
14.120000,-0.08958838
14.124000,-0.08716707
14.128000,-0.08474576
14.132000,-0.07506053
14.136000,-0.08716707
14.140000,-0.09685230
14.144000,-0.08958838
14.148000,-0.09200969
14.152000,-0.09443099
14.156000,-0.09200969
14.160000,-0.09443099
14.164000,-0.08474576
14.168000,-0.08474576
14.172000,-0.08716707
14.176000,-0.08716707
14.180000,-0.08716707
14.184000,-0.09685230
14.188000,-0.08716707
14.192000,-0.09927361
14.196000,-0.10653753
14.200000,-0.11138015
14.204000,-0.10411622
14.208000,-0.10169492
14.212000,-0.08232446
14.216000,-0.07990315
14.220000,-0.07748184
14.224000,-0.09443099
14.228000,-0.09200969
14.232000,-0.09443099
14.236000,-0.10653753
14.240000,-0.09200969
14.244000,-0.09200969
14.248000,-0.09685230
14.252000,-0.07506053
14.256000,-0.08232446
14.260000,-0.08474576
14.264000,-0.08958838
14.268000,-0.08232446
14.272000,-0.10411622
14.276000,-0.10895884
14.280000,-0.10169492
14.284000,-0.09443099
14.288000,-0.09443099
14.292000,-0.09200969
14.296000,-0.08474576
14.300000,-0.08232446
14.304000,-0.08232446
14.308000,-0.09443099
14.312000,-0.08474576
14.316000,-0.09685230
14.320000,-0.09443099
14.324000,-0.09200969
14.328000,-0.10411622
14.332000,-0.09443099
14.336000,-0.09927361
14.340000,-0.10169492
14.344000,-0.09200969
14.348000,-0.08232446
14.352000,-0.08958838
14.356000,-0.08716707
14.360000,-0.10895884
14.364000,-0.10653753
14.368000,-0.10411622
14.372000,-0.10411622
14.376000,-0.11138015
14.380000,-0.10653753
14.384000,-0.08958838
14.388000,-0.09200969
14.392000,-0.07990315
14.396000,-0.08232446
14.400000,-0.09685230
14.404000,-0.10411622
14.408000,-0.11380145
14.412000,-0.11622276
14.416000,-0.10411622
14.420000,-0.09927361
14.424000,-0.10653753
14.428000,-0.09927361
14.432000,-0.08958838
14.436000,-0.08958838
14.440000,-0.09685230
14.444000,-0.08958838
14.448000,-0.08474576
14.452000,-0.07021792
14.456000,-0.06053269
14.460000,-0.04842615
14.464000,-0.05084746
14.468000,-0.04842615
14.472000,-0.03874092
14.476000,-0.03147700
14.480000,-0.00968523
14.484000,0.00000000
14.488000,-0.00484262
14.492000,0.00000000
14.496000,0.00726392
14.500000,-0.00242131
14.504000,-0.02905569
14.508000,-0.05084746
14.512000,-0.06779661
14.516000,-0.07748184
14.520000,-0.08958838
14.524000,-0.09927361
14.528000,-0.11864407
14.532000,-0.12348668
14.536000,-0.13317191
14.540000,-0.14527845
14.544000,-0.15254237
14.548000,-0.14285714
14.552000,-0.13801453
14.556000,-0.12832930
14.560000,-0.09927361
14.564000,-0.06053269
14.568000,-0.00484262
14.572000,0.11138015
14.576000,0.27845036
14.580000,0.40435835
14.584000,0.49152542
14.588000,0.55690073
14.592000,0.47457627
14.596000,0.12348668
14.600000,-0.32929782
14.604000,-0.66101695
14.608000,-0.78692494
14.612000,-0.76755448
14.616000,-0.69733656
14.620000,-0.56658596
14.624000,-0.41646489
14.628000,-0.30992736
14.632000,-0.25181598
14.636000,-0.21549637
14.640000,-0.18886199
14.644000,-0.17675545
14.648000,-0.18159806
14.652000,-0.16949153
14.656000,-0.16222760
14.660000,-0.15738499
14.664000,-0.15738499
14.668000,-0.16707022
14.672000,-0.17433414
14.676000,-0.17917676
14.680000,-0.18401937
14.684000,-0.18159806
14.688000,-0.17917676
14.692000,-0.17191283
14.696000,-0.16949153
14.700000,-0.17191283
14.704000,-0.17191283
14.708000,-0.17675545
14.712000,-0.18644068
14.716000,-0.19612591
14.720000,-0.19370460
14.724000,-0.20823245
14.728000,-0.21307506
14.732000,-0.21307506
14.736000,-0.21307506
14.740000,-0.19854722
14.744000,-0.20338983
14.748000,-0.20096852
14.752000,-0.20823245
14.756000,-0.20096852
14.760000,-0.21791768
14.764000,-0.22276029
14.768000,-0.23002421
14.772000,-0.23486683
14.776000,-0.23728814
14.780000,-0.23486683
14.784000,-0.22518160
14.788000,-0.22760291
14.792000,-0.22276029
14.796000,-0.23486683
14.800000,-0.23244552
14.804000,-0.24213075
14.808000,-0.25665860
14.812000,-0.25665860
14.816000,-0.25181598
14.820000,-0.25181598
14.824000,-0.25665860
14.828000,-0.23970944
14.832000,-0.24213075
14.836000,-0.23970944
14.840000,-0.23244552
14.844000,-0.24697337
14.848000,-0.24213075
14.852000,-0.24455206
14.856000,-0.25423729
14.860000,-0.24939467
14.864000,-0.24213075
14.868000,-0.24697337
14.872000,-0.22760291
14.876000,-0.20338983
14.880000,-0.20096852
14.884000,-0.18401937
14.888000,-0.18886199
14.892000,-0.17191283
14.896000,-0.16707022
14.900000,-0.15254237
14.904000,-0.13075061
14.908000,-0.11864407
14.912000,-0.09685230
14.916000,-0.08232446
14.920000,-0.06537530
14.924000,-0.04600484
14.928000,-0.03874092
14.932000,-0.03147700
14.936000,-0.03389831
14.940000,-0.02905569
14.944000,-0.03874092
14.948000,-0.03631961
14.952000,-0.03389831
14.956000,-0.03147700
14.960000,-0.02905569
14.964000,-0.03147700
14.968000,-0.03147700
14.972000,-0.03631961
14.976000,-0.05084746
14.980000,-0.04842615
14.984000,-0.06779661
14.988000,-0.07506053
14.992000,-0.08232446
14.996000,-0.07748184
15.000000,-0.08232446
15.004000,-0.08232446
15.008000,-0.07021792
15.012000,-0.06053269
15.016000,-0.06537530
15.020000,-0.06779661
15.024000,-0.06053269
15.028000,-0.07021792
15.032000,-0.07990315
15.036000,-0.08232446
15.040000,-0.07990315
15.044000,-0.09200969
15.048000,-0.09200969
15.052000,-0.08232446
15.056000,-0.07506053
15.060000,-0.07263923
15.064000,-0.07748184
15.068000,-0.08232446
15.072000,-0.09443099
15.076000,-0.10895884
15.080000,-0.10653753
15.084000,-0.11138015
15.088000,-0.10653753
15.092000,-0.10169492
15.096000,-0.09200969
15.100000,-0.09685230
15.104000,-0.09443099
15.108000,-0.08958838
15.112000,-0.09200969
15.116000,-0.10895884
15.120000,-0.11864407
15.124000,-0.11622276
15.128000,-0.10895884
15.132000,-0.11138015
15.136000,-0.10653753
15.140000,-0.09927361
15.144000,-0.08958838
15.148000,-0.09443099
15.152000,-0.09927361
15.156000,-0.10169492
15.160000,-0.10895884
15.164000,-0.10895884
15.168000,-0.10653753
15.172000,-0.10653753
15.176000,-0.12590799
15.180000,-0.11138015
15.184000,-0.10411622
15.188000,-0.10169492
15.192000,-0.10895884
15.196000,-0.10411622
15.200000,-0.10653753
15.204000,-0.10653753
15.208000,-0.11622276
15.212000,-0.12348668
15.216000,-0.12106538
15.220000,-0.11622276
15.224000,-0.11622276
15.228000,-0.10895884
15.232000,-0.10169492
15.236000,-0.10169492
15.240000,-0.10895884
15.244000,-0.10895884
15.248000,-0.10653753
15.252000,-0.12590799
15.256000,-0.13075061
15.260000,-0.12348668
15.264000,-0.12590799
15.268000,-0.13075061
15.272000,-0.12832930
15.276000,-0.11622276
15.280000,-0.11864407
15.284000,-0.12106538
15.288000,-0.10653753
15.292000,-0.11864407
15.296000,-0.11864407
15.300000,-0.11622276
15.304000,-0.11380145
15.308000,-0.11138015
15.312000,-0.10653753
15.316000,-0.08958838
15.320000,-0.06779661
15.324000,-0.05084746
15.328000,-0.04116223
15.332000,-0.05569007
15.336000,-0.05084746
15.340000,-0.04842615
15.344000,-0.04600484
15.348000,-0.05084746
15.352000,-0.06053269
15.356000,-0.04600484
15.360000,-0.03874092
15.364000,-0.05326877
15.368000,-0.06537530
15.372000,-0.07021792
15.376000,-0.08232446
15.380000,-0.10411622
15.384000,-0.13075061
15.388000,-0.14285714
15.392000,-0.15496368
15.396000,-0.15012107
15.400000,-0.16464891
15.404000,-0.16222760
15.408000,-0.15980630
15.412000,-0.14769976
15.416000,-0.14285714
15.420000,-0.13801453
15.424000,-0.10895884
15.428000,-0.09443099
15.432000,-0.03147700
15.436000,0.08232446
15.440000,0.24697337
15.444000,0.38740920
15.448000,0.47457627
15.452000,0.53753027
15.456000,0.43099274
15.460000,0.06537530
15.464000,-0.38498789
15.468000,-0.68523002
15.472000,-0.81355932
15.476000,-0.80629540
15.480000,-0.74092010
15.484000,-0.60048426
15.488000,-0.46731235
15.492000,-0.34624697
15.496000,-0.27845036
15.500000,-0.21791768
15.504000,-0.18401937
15.508000,-0.17675545
15.512000,-0.18644068
15.516000,-0.18644068
15.520000,-0.19370460
15.524000,-0.19370460
15.528000,-0.18401937
15.532000,-0.18401937
15.536000,-0.18644068
15.540000,-0.19128329
15.544000,-0.19128329
15.548000,-0.18644068
15.552000,-0.19370460
15.556000,-0.19128329
15.560000,-0.18886199
15.564000,-0.19128329
15.568000,-0.19612591
15.572000,-0.20096852
15.576000,-0.20581114
15.580000,-0.20581114
15.584000,-0.20338983
15.588000,-0.19128329
15.592000,-0.20823245
15.596000,-0.20338983
15.600000,-0.21549637
15.604000,-0.22276029
15.608000,-0.23970944
15.612000,-0.25181598
15.616000,-0.24455206
15.620000,-0.25181598
15.624000,-0.26876513
15.628000,-0.27118644
15.632000,-0.27602906
15.636000,-0.28813559
15.640000,-0.29782082
15.644000,-0.30024213
15.648000,-0.31719128
15.652000,-0.31719128
15.656000,-0.33171913
15.660000,-0.35351090
15.664000,-0.35351090
15.668000,-0.37288136
15.672000,-0.38014528
15.676000,-0.37530266
15.680000,-0.38256659
15.684000,-0.39225182
15.688000,-0.39467312
15.692000,-0.41162228
15.696000,-0.41888620
15.700000,-0.43341404
15.704000,-0.42857143
15.708000,-0.44552058
15.712000,-0.46246973
15.716000,-0.46246973
15.720000,-0.45520581
15.724000,-0.43341404
15.728000,-0.42857143
15.732000,-0.42372881
15.736000,-0.40193705
15.740000,-0.38256659
15.744000,-0.36803874
15.748000,-0.35593220
15.752000,-0.32445521
15.756000,-0.30750605
15.760000,-0.27360775
15.764000,-0.24455206
15.768000,-0.21065375
15.772000,-0.18644068
15.776000,-0.17917676
15.780000,-0.16222760
15.784000,-0.14527845
15.788000,-0.13801453
15.792000,-0.13317191
15.796000,-0.13075061
15.800000,-0.13075061
15.804000,-0.12590799
15.808000,-0.11380145
15.812000,-0.11380145
15.816000,-0.11622276
15.820000,-0.10653753
15.824000,-0.10653753
15.828000,-0.11864407
15.832000,-0.12348668
15.836000,-0.12348668
15.840000,-0.13317191
15.844000,-0.13317191
15.848000,-0.13801453
15.852000,-0.13317191
15.856000,-0.12832930
15.860000,-0.11622276
15.864000,-0.11622276
15.868000,-0.11622276
15.872000,-0.12348668
15.876000,-0.12832930
15.880000,-0.13801453
15.884000,-0.13801453
15.888000,-0.13801453
15.892000,-0.14043584
15.896000,-0.13801453
15.900000,-0.14285714
15.904000,-0.13559322
15.908000,-0.13075061
15.912000,-0.12590799
15.916000,-0.12590799
15.920000,-0.13075061
15.924000,-0.13317191
15.928000,-0.13317191
15.932000,-0.13559322
15.936000,-0.13801453
15.940000,-0.13075061
15.944000,-0.14285714
15.948000,-0.13801453
15.952000,-0.13075061
15.956000,-0.14043584
15.960000,-0.14043584
15.964000,-0.15254237
15.968000,-0.14769976
15.972000,-0.09685230
15.976000,0.06295400
15.980000,0.26150121
15.984000,0.41404358
15.988000,0.51089588
15.992000,0.41888620
15.996000,0.01210654
16.000000,-0.44552058
16.004000,-0.76271186
16.008000,-0.85714286
16.012000,-0.83050847
16.016000,-0.73123487
16.020000,-0.57142857
16.024000,-0.40677966
16.028000,-0.27845036
16.032000,-0.19612591
16.036000,-0.15254237
16.040000,-0.13559322
16.044000,-0.12106538
16.048000,-0.11622276
16.052000,-0.11622276
16.056000,-0.13075061
16.060000,-0.11380145
16.064000,-0.12590799
16.068000,-0.13801453
16.072000,-0.11864407
16.076000,-0.12348668
16.080000,-0.11864407
16.084000,-0.11380145
16.088000,-0.10653753
16.092000,-0.11622276
16.096000,-0.12348668
16.100000,-0.12106538
16.104000,-0.11380145
16.108000,-0.12348668
16.112000,-0.12590799
16.116000,-0.13559322
16.120000,-0.13801453
16.124000,-0.13317191
16.128000,-0.12832930
16.132000,-0.13559322
16.136000,-0.13317191
16.140000,-0.13075061
16.144000,-0.14769976
16.148000,-0.16222760
16.152000,-0.16222760
16.156000,-0.17917676
16.160000,-0.18886199
16.164000,-0.19370460
16.168000,-0.20823245
16.172000,-0.21549637
16.176000,-0.22276029
16.180000,-0.21307506
16.184000,-0.23244552
16.188000,-0.23244552
16.192000,-0.24939467
16.196000,-0.25181598
16.200000,-0.26150121
16.204000,-0.27118644
16.208000,-0.28571429
16.212000,-0.28329298
16.216000,-0.27845036
16.220000,-0.27845036
16.224000,-0.26876513
16.228000,-0.27602906
16.232000,-0.29539952
16.236000,-0.29055690
16.240000,-0.27845036
16.244000,-0.27360775
16.248000,-0.25423729
16.252000,-0.23002421
16.256000,-0.20096852
16.260000,-0.16949153
16.264000,-0.14043584
16.268000,-0.11864407
16.272000,-0.08716707
16.276000,-0.07506053
16.280000,-0.07021792
16.284000,-0.05569007
16.288000,-0.04600484
16.292000,-0.04842615
16.296000,-0.03389831
16.300000,-0.01937046
16.304000,-0.00968523
16.308000,-0.00968523
16.312000,-0.00242131
16.316000,-0.00968523
16.320000,-0.00242131
16.324000,-0.03389831
16.328000,-0.04600484
16.332000,-0.04842615
16.336000,-0.05326877
16.340000,-0.05084746
16.344000,-0.06053269
16.348000,-0.05811138
16.352000,-0.05811138
16.356000,-0.04842615
16.360000,-0.05811138
16.364000,-0.05811138
16.368000,-0.06053269
16.372000,-0.06779661
16.376000,-0.07748184
16.380000,-0.06779661
16.384000,-0.06295400
16.388000,-0.06053269
16.392000,-0.06779661
16.396000,-0.08474576
16.400000,-0.08474576
16.404000,-0.08716707
16.408000,-0.07263923
16.412000,-0.08474576
16.416000,-0.10169492
16.420000,-0.10411622
16.424000,-0.10411622
16.428000,-0.09927361
16.432000,-0.08716707
16.436000,-0.08232446
16.440000,-0.08232446
16.444000,-0.08958838
16.448000,-0.08232446
16.452000,-0.08474576
16.456000,-0.09927361
16.460000,-0.10169492
16.464000,-0.10169492
16.468000,-0.09443099
16.472000,-0.07748184
16.476000,-0.07021792
16.480000,-0.07021792
16.484000,-0.04358354
16.488000,-0.00484262
16.492000,0.01694915
16.496000,0.04600484
16.500000,0.05569007
16.504000,0.03631961
16.508000,0.04842615
16.512000,0.04358354
16.516000,0.05326877
16.520000,0.03874092
16.524000,0.01937046
16.528000,0.00000000
16.532000,-0.02421308
16.536000,-0.05811138
16.540000,-0.07263923
16.544000,-0.08474576
16.548000,-0.08232446
16.552000,-0.10895884
16.556000,-0.14769976
16.560000,-0.14527845
16.564000,-0.13559322
16.568000,-0.10895884
16.572000,-0.08958838
16.576000,-0.07506053
16.580000,-0.05326877
16.584000,-0.02905569
16.588000,0.03631961
16.592000,0.16464891
16.596000,0.34140436
16.600000,0.49152542
16.604000,0.59079903
16.608000,0.60532688
16.612000,0.38256659
16.616000,-0.05811138
16.620000,-0.45762712
16.624000,-0.68523002
16.628000,-0.73365617
16.632000,-0.69491525
16.636000,-0.63680387
16.640000,-0.54237288
16.644000,-0.40920097
16.648000,-0.28329298
16.652000,-0.22033898
16.656000,-0.20581114
16.660000,-0.20096852
16.664000,-0.17191283
16.668000,-0.15980630
16.672000,-0.15012107
16.676000,-0.15496368
16.680000,-0.15738499
16.684000,-0.15496368
16.688000,-0.15254237
16.692000,-0.15496368
16.696000,-0.14285714
16.700000,-0.12590799
16.704000,-0.13559322
16.708000,-0.14769976
16.712000,-0.16222760
16.716000,-0.16949153
16.720000,-0.17433414
16.724000,-0.16949153
16.728000,-0.18159806
16.732000,-0.19612591
16.736000,-0.19370460
16.740000,-0.20338983
16.744000,-0.23244552
16.748000,-0.25665860
16.752000,-0.25181598
16.756000,-0.25181598
16.760000,-0.23970944
16.764000,-0.26150121
16.768000,-0.30266344
16.772000,-0.32929782
16.776000,-0.32445521
16.780000,-0.33414044
16.784000,-0.33656174
16.788000,-0.34624697
16.792000,-0.33414044
16.796000,-0.36319613
16.800000,-0.38740920
16.804000,-0.39467312
16.808000,-0.39467312
16.812000,-0.40920097
16.816000,-0.43099274
16.820000,-0.44309927
16.824000,-0.44794189
16.828000,-0.46246973
16.832000,-0.47215496
16.836000,-0.46489104
16.840000,-0.46489104
16.844000,-0.48426150
16.848000,-0.49878935
16.852000,-0.51815981
16.856000,-0.52784504
16.860000,-0.52300242
16.864000,-0.53026634
16.868000,-0.53753027
16.872000,-0.51815981
16.876000,-0.50363196
16.880000,-0.49394673
16.884000,-0.46489104
16.888000,-0.44552058
16.892000,-0.42372881
16.896000,-0.39225182
16.900000,-0.37772397
16.904000,-0.34866828
16.908000,-0.33656174
16.912000,-0.30992736
16.916000,-0.29055690
16.920000,-0.27360775
16.924000,-0.24455206
16.928000,-0.21549637
16.932000,-0.20338983
16.936000,-0.21307506
16.940000,-0.21307506
16.944000,-0.21549637
16.948000,-0.20338983
16.952000,-0.20096852
16.956000,-0.19128329
16.960000,-0.17191283
16.964000,-0.17191283
16.968000,-0.17433414
16.972000,-0.16464891
16.976000,-0.15012107
16.980000,-0.15012107
16.984000,-0.15254237
16.988000,-0.17433414
16.992000,-0.17433414
16.996000,-0.17917676
17.000000,-0.17675545
17.004000,-0.17675545
17.008000,-0.18159806
17.012000,-0.17433414
17.016000,-0.16949153
17.020000,-0.16707022
17.024000,-0.16464891
17.028000,-0.17433414
17.032000,-0.17433414
17.036000,-0.19370460
17.040000,-0.19854722
17.044000,-0.20581114
17.048000,-0.20581114
17.052000,-0.20581114
17.056000,-0.19854722
17.060000,-0.19854722
17.064000,-0.19854722
17.068000,-0.19370460
17.072000,-0.20823245
17.076000,-0.21549637
17.080000,-0.21791768
17.084000,-0.21791768
17.088000,-0.22276029
17.092000,-0.23728814
17.096000,-0.23244552
17.100000,-0.23002421
17.104000,-0.22760291
17.108000,-0.23002421
17.112000,-0.23002421
17.116000,-0.23486683
17.120000,-0.24939467
17.124000,-0.24455206
17.128000,-0.24939467
17.132000,-0.23970944
17.136000,-0.24697337
17.140000,-0.24213075
17.144000,-0.24213075
17.148000,-0.24213075
17.152000,-0.24213075
17.156000,-0.24455206
17.160000,-0.24939467
17.164000,-0.26392252
17.168000,-0.26876513
17.172000,-0.26150121
17.176000,-0.25423729
17.180000,-0.25423729
17.184000,-0.25907990
17.188000,-0.25907990
17.192000,-0.24939467
17.196000,-0.24697337
17.200000,-0.24455206
17.204000,-0.25907990
17.208000,-0.25665860
17.212000,-0.26150121
17.216000,-0.26150121
17.220000,-0.26150121
17.224000,-0.25907990
17.228000,-0.26392252
17.232000,-0.26150121
17.236000,-0.26150121
17.240000,-0.25423729
17.244000,-0.25423729
17.248000,-0.25423729
17.252000,-0.27118644
17.256000,-0.27360775
17.260000,-0.27118644
17.264000,-0.26634383
17.268000,-0.25907990
17.272000,-0.25665860
17.276000,-0.26150121
17.280000,-0.25665860
17.284000,-0.25181598
17.288000,-0.24697337
17.292000,-0.25665860
17.296000,-0.26634383
17.300000,-0.26876513
17.304000,-0.27602906
17.308000,-0.26150121
17.312000,-0.27360775
17.316000,-0.25423729
17.320000,-0.26150121
17.324000,-0.25907990
17.328000,-0.25423729
17.332000,-0.25181598
17.336000,-0.25423729
17.340000,-0.26392252
17.344000,-0.27360775
17.348000,-0.26876513
17.352000,-0.27118644
17.356000,-0.26392252
17.360000,-0.27602906
17.364000,-0.26634383
17.368000,-0.26876513
17.372000,-0.26150121
17.376000,-0.26150121
17.380000,-0.25181598
17.384000,-0.26150121
17.388000,-0.26634383
17.392000,-0.27602906
17.396000,-0.28087167
17.400000,-0.27118644
17.404000,-0.26150121
17.408000,-0.26150121
17.412000,-0.26634383
17.416000,-0.27602906
17.420000,-0.26392252
17.424000,-0.25423729
17.428000,-0.25423729
17.432000,-0.23486683
17.436000,-0.22276029
17.440000,-0.21791768
17.444000,-0.21065375
17.448000,-0.20581114
17.452000,-0.19128329
17.456000,-0.17675545
17.460000,-0.16949153
17.464000,-0.17433414
17.468000,-0.17675545
17.472000,-0.18159806
17.476000,-0.18159806
17.480000,-0.19128329
17.484000,-0.21065375
17.488000,-0.22033898
17.492000,-0.23486683
17.496000,-0.23728814
17.500000,-0.24213075
17.504000,-0.24939467
17.508000,-0.26150121
17.512000,-0.27602906
17.516000,-0.30024213
17.520000,-0.30024213
17.524000,-0.30992736
17.528000,-0.29539952
17.532000,-0.29782082
17.536000,-0.28329298
17.540000,-0.24697337
17.544000,-0.20823245
17.548000,-0.14527845
17.552000,-0.03631961
17.556000,0.11138015
17.560000,0.22033898
17.564000,0.27118644
17.568000,0.31234867
17.572000,0.22760291
17.576000,-0.09200969
17.580000,-0.52784504
17.584000,-0.83292978
17.588000,-0.93946731
17.592000,-0.92251816
17.596000,-0.83777240
17.600000,-0.70460048
17.604000,-0.56416465
17.608000,-0.46973366
17.612000,-0.39467312
17.616000,-0.35108959
17.620000,-0.31961259
17.624000,-0.30750605
17.628000,-0.30508475
17.632000,-0.29782082
17.636000,-0.30024213
17.640000,-0.29297821
17.644000,-0.30024213
17.648000,-0.30508475
17.652000,-0.30508475
17.656000,-0.30508475
17.660000,-0.30992736
17.664000,-0.30750605
17.668000,-0.30266344
17.672000,-0.30992736
17.676000,-0.30508475
17.680000,-0.30266344
17.684000,-0.30992736
17.688000,-0.29782082
17.692000,-0.30992736
17.696000,-0.32687651
17.700000,-0.33656174
17.704000,-0.32687651
17.708000,-0.33171913
17.712000,-0.33898305
17.716000,-0.35108959
17.720000,-0.34382567
17.724000,-0.34140436
17.728000,-0.34382567
17.732000,-0.34382567
17.736000,-0.35108959
17.740000,-0.35351090
17.744000,-0.37288136
17.748000,-0.38256659
17.752000,-0.38256659
17.756000,-0.37530266
17.760000,-0.39467312
17.764000,-0.39467312
17.768000,-0.39709443
17.772000,-0.41162228
17.776000,-0.40193705
17.780000,-0.41646489
17.784000,-0.44067797
17.788000,-0.46489104
17.792000,-0.45762712
17.796000,-0.47941889
17.800000,-0.47699758
17.804000,-0.48426150
17.808000,-0.47941889
17.812000,-0.48910412
17.816000,-0.48910412
17.820000,-0.48668281
17.824000,-0.49878935
17.828000,-0.51815981
17.832000,-0.52058111
17.836000,-0.53753027
17.840000,-0.54479419
17.844000,-0.54237288
17.848000,-0.53026634
17.852000,-0.52058111
17.856000,-0.49152542
17.860000,-0.47457627
17.864000,-0.44552058
17.868000,-0.43583535
17.872000,-0.42857143
17.876000,-0.40920097
17.880000,-0.37772397
17.884000,-0.34866828
17.888000,-0.31719128
17.892000,-0.28571429
17.896000,-0.25181598
17.900000,-0.23970944
17.904000,-0.21791768
17.908000,-0.20338983
17.912000,-0.18886199
17.916000,-0.18886199
17.920000,-0.20823245
17.924000,-0.20096852
17.928000,-0.19370460
17.932000,-0.19128329
17.936000,-0.19128329
17.940000,-0.18401937
17.944000,-0.17675545
17.948000,-0.17191283
17.952000,-0.16949153
17.956000,-0.17675545
17.960000,-0.17191283
17.964000,-0.17433414
17.968000,-0.18644068
17.972000,-0.19128329
17.976000,-0.18886199
17.980000,-0.19370460
17.984000,-0.19128329
17.988000,-0.18401937
17.992000,-0.18159806
17.996000,-0.18401937
18.000000,-0.18886199
18.004000,-0.19612591
18.008000,-0.20096852
18.012000,-0.20581114
18.016000,-0.21065375
18.020000,-0.19612591
18.024000,-0.20338983
18.028000,-0.21307506
18.032000,-0.20338983
18.036000,-0.20338983
18.040000,-0.20338983
18.044000,-0.22033898
18.048000,-0.22276029
18.052000,-0.21065375
18.056000,-0.22033898
18.060000,-0.21065375
18.064000,-0.22518160
18.068000,-0.21791768
18.072000,-0.21791768
18.076000,-0.20338983
18.080000,-0.21307506
18.084000,-0.20823245
18.088000,-0.20338983
18.092000,-0.20096852
18.096000,-0.20096852
18.100000,-0.19854722
18.104000,-0.22033898
18.108000,-0.18644068
18.112000,-0.07748184
18.116000,0.09685230
18.120000,0.26150121
18.124000,0.35835351
18.128000,0.29539952
18.132000,-0.02421308
18.136000,-0.49152542
18.140000,-0.80145278
18.144000,-0.92978208
18.148000,-0.91767554
18.152000,-0.85714286
18.156000,-0.76513317
18.160000,-0.61501211
18.164000,-0.44794189
18.168000,-0.28813559
18.172000,-0.19370460
18.176000,-0.15254237
18.180000,-0.13801453
18.184000,-0.13559322
18.188000,-0.15254237
18.192000,-0.16464891
18.196000,-0.15980630
18.200000,-0.15496368
18.204000,-0.15012107
18.208000,-0.13801453
18.212000,-0.12590799
18.216000,-0.11864407
18.220000,-0.12106538
18.224000,-0.14285714
18.228000,-0.14769976
18.232000,-0.16464891
18.236000,-0.17433414
18.240000,-0.18401937
18.244000,-0.19370460
18.248000,-0.19370460
18.252000,-0.18644068
18.256000,-0.18886199
18.260000,-0.19370460
18.264000,-0.19612591
18.268000,-0.19370460
18.272000,-0.19854722
18.276000,-0.21065375
18.280000,-0.22518160
18.284000,-0.23244552
18.288000,-0.24213075
18.292000,-0.24213075
18.296000,-0.24939467
18.300000,-0.24939467
18.304000,-0.25181598
18.308000,-0.26150121
18.312000,-0.27360775
18.316000,-0.27845036
18.320000,-0.29055690
18.324000,-0.30024213
18.328000,-0.32203390
18.332000,-0.32929782
18.336000,-0.33898305
18.340000,-0.33898305
18.344000,-0.33656174
18.348000,-0.35108959
18.352000,-0.35593220
18.356000,-0.36803874
18.360000,-0.38498789
18.364000,-0.38256659
18.368000,-0.38498789
18.372000,-0.38983051
18.376000,-0.37288136
18.380000,-0.37046005
18.384000,-0.36077482
18.388000,-0.33898305
18.392000,-0.31719128
18.396000,-0.30024213
18.400000,-0.28087167
18.404000,-0.26392252
18.408000,-0.24697337
18.412000,-0.22518160
18.416000,-0.20096852
18.420000,-0.17917676
18.424000,-0.16949153
18.428000,-0.14043584
18.432000,-0.13559322
18.436000,-0.11622276
18.440000,-0.11864407
18.444000,-0.11138015
18.448000,-0.09685230
18.452000,-0.09927361
18.456000,-0.11138015
18.460000,-0.11864407
18.464000,-0.12832930
18.468000,-0.14043584
18.472000,-0.14527845
18.476000,-0.14769976
18.480000,-0.15254237
18.484000,-0.14527845
18.488000,-0.14769976
18.492000,-0.15012107
18.496000,-0.14527845
18.500000,-0.15496368
18.504000,-0.15980630
18.508000,-0.16707022
18.512000,-0.17191283
18.516000,-0.17675545
18.520000,-0.17191283
18.524000,-0.16707022
18.528000,-0.17191283
18.532000,-0.15254237
18.536000,-0.16707022
18.540000,-0.16707022
18.544000,-0.17433414
18.548000,-0.17917676
18.552000,-0.17675545
18.556000,-0.15496368
18.560000,-0.12348668
18.564000,-0.11622276
18.568000,-0.10653753
18.572000,-0.09443099
18.576000,-0.09685230
18.580000,-0.10169492
18.584000,-0.10169492
18.588000,-0.10411622
18.592000,-0.10895884
18.596000,-0.12106538
18.600000,-0.11622276
18.604000,-0.12106538
18.608000,-0.11138015
18.612000,-0.10169492
18.616000,-0.09443099
18.620000,-0.08232446
18.624000,-0.08232446
18.628000,-0.08232446
18.632000,-0.07021792
18.636000,-0.06537530
18.640000,-0.05811138
18.644000,-0.03147700
18.648000,0.00000000
18.652000,0.03389831
18.656000,0.06779661
18.660000,0.07506053
18.664000,0.07021792
18.668000,0.06295400
18.672000,0.04116223
18.676000,0.02905569
18.680000,0.01452785
18.684000,-0.01937046
18.688000,-0.04116223
18.692000,-0.07021792
18.696000,-0.09927361
18.700000,-0.10411622
18.704000,-0.11138015
18.708000,-0.12590799
18.712000,-0.12590799
18.716000,-0.13317191
18.720000,-0.13317191
18.724000,-0.13801453
18.728000,-0.15012107
18.732000,-0.13801453
18.736000,-0.14043584
18.740000,-0.10895884
18.744000,-0.06053269
18.748000,-0.02179177
18.752000,0.03147700
18.756000,0.16707022
18.760000,0.30266344
18.764000,0.40193705
18.768000,0.47457627
18.772000,0.51573850
18.776000,0.34624697
18.780000,-0.07748184
18.784000,-0.48426150
18.788000,-0.73123487
18.792000,-0.79903148
18.796000,-0.75060533
18.800000,-0.63438257
18.804000,-0.49394673
18.808000,-0.35835351
18.812000,-0.27360775
18.816000,-0.23002421
18.820000,-0.20581114
18.824000,-0.18159806
18.828000,-0.17191283
18.832000,-0.16464891
18.836000,-0.15738499
18.840000,-0.14769976
18.844000,-0.14769976
18.848000,-0.15496368
18.852000,-0.15012107
18.856000,-0.15496368
18.860000,-0.16464891
18.864000,-0.16707022
18.868000,-0.17191283
18.872000,-0.15980630
18.876000,-0.15980630
18.880000,-0.15496368
18.884000,-0.15012107
18.888000,-0.15496368
18.892000,-0.16464891
18.896000,-0.16949153
18.900000,-0.15980630
18.904000,-0.17191283
18.908000,-0.17917676
18.912000,-0.17675545
18.916000,-0.18644068
18.920000,-0.19370460
18.924000,-0.17917676
18.928000,-0.19128329
18.932000,-0.19128329
18.936000,-0.19370460
18.940000,-0.20338983
18.944000,-0.22276029
18.948000,-0.23486683
18.952000,-0.24455206
18.956000,-0.26634383
18.960000,-0.26634383
18.964000,-0.26634383
18.968000,-0.27845036
18.972000,-0.27360775
18.976000,-0.27360775
18.980000,-0.29055690
18.984000,-0.30508475
18.988000,-0.33171913
18.992000,-0.33898305
18.996000,-0.34140436
19.000000,-0.34866828
19.004000,-0.35835351
19.008000,-0.36319613
19.012000,-0.36077482
19.016000,-0.36077482
19.020000,-0.36561743
19.024000,-0.35835351
19.028000,-0.38014528
19.032000,-0.38740920
19.036000,-0.38256659
19.040000,-0.38014528
19.044000,-0.37288136
19.048000,-0.35835351
19.052000,-0.32929782
19.056000,-0.30992736
19.060000,-0.29297821
19.064000,-0.26150121
19.068000,-0.23244552
19.072000,-0.20581114
19.076000,-0.18886199
19.080000,-0.16464891
19.084000,-0.15254237
19.088000,-0.12106538
19.092000,-0.10895884
19.096000,-0.09200969
19.100000,-0.06779661
19.104000,-0.05569007
19.108000,-0.04116223
19.112000,-0.04600484
19.116000,-0.04116223
19.120000,-0.03631961
19.124000,-0.03874092
19.128000,-0.04116223
19.132000,-0.03631961
19.136000,-0.03874092
19.140000,-0.03874092
19.144000,-0.02421308
19.148000,-0.03631961
19.152000,-0.03147700
19.156000,-0.03389831
19.160000,-0.03147700
19.164000,-0.03874092
19.168000,-0.04358354
19.172000,-0.04842615
19.176000,-0.04842615
19.180000,-0.04358354
19.184000,-0.04842615
19.188000,-0.05084746
19.192000,-0.04358354
19.196000,-0.04358354
19.200000,-0.04358354
19.204000,-0.05084746
19.208000,-0.06779661
19.212000,-0.06053269
19.216000,-0.06053269
19.220000,-0.06537530
19.224000,-0.07021792
19.228000,-0.07506053
19.232000,-0.06053269
19.236000,-0.06295400
19.240000,-0.05084746
19.244000,-0.06295400
19.248000,-0.07263923
19.252000,-0.07021792
19.256000,-0.07263923
19.260000,-0.08716707
19.264000,-0.08958838
19.268000,-0.08232446
19.272000,-0.08716707
19.276000,-0.07748184
19.280000,-0.07506053
19.284000,-0.07506053
19.288000,-0.08232446
19.292000,-0.07263923
19.296000,-0.08474576
19.300000,-0.08474576
19.304000,-0.08958838
19.308000,-0.09200969
19.312000,-0.08958838
19.316000,-0.08232446
19.320000,-0.08232446
19.324000,-0.07748184
19.328000,-0.07748184
19.332000,-0.07506053
19.336000,-0.07748184
19.340000,-0.08716707
19.344000,-0.10411622
19.348000,-0.10411622
19.352000,-0.10411622
19.356000,-0.09200969
19.360000,-0.09200969
19.364000,-0.08958838
19.368000,-0.09443099
19.372000,-0.09200969
19.376000,-0.08716707
19.380000,-0.08958838
19.384000,-0.09200969
19.388000,-0.09927361
19.392000,-0.10169492
19.396000,-0.10653753
19.400000,-0.10169492
19.404000,-0.09685230
19.408000,-0.08474576
19.412000,-0.08232446
19.416000,-0.08232446
19.420000,-0.09200969
19.424000,-0.09685230
19.428000,-0.10653753
19.432000,-0.10653753
19.436000,-0.11138015
19.440000,-0.10653753
19.444000,-0.10411622
19.448000,-0.10895884
19.452000,-0.10169492
19.456000,-0.09200969
19.460000,-0.08958838
19.464000,-0.09443099
19.468000,-0.09443099
19.472000,-0.09685230
19.476000,-0.09927361
19.480000,-0.10653753
19.484000,-0.10653753
19.488000,-0.11138015
19.492000,-0.10895884
19.496000,-0.09927361
19.500000,-0.09927361
19.504000,-0.10411622
19.508000,-0.10895884
19.512000,-0.10653753
19.516000,-0.09685230
19.520000,-0.10653753
19.524000,-0.11622276
19.528000,-0.10653753
19.532000,-0.11622276
19.536000,-0.10895884
19.540000,-0.11622276
19.544000,-0.09927361
19.548000,-0.09685230
19.552000,-0.09685230
19.556000,-0.10169492
19.560000,-0.09685230
19.564000,-0.09685230
19.568000,-0.08716707
19.572000,-0.07748184
19.576000,-0.04842615
19.580000,-0.04600484
19.584000,-0.05084746
19.588000,-0.03874092
19.592000,-0.02905569
19.596000,-0.01937046
19.600000,-0.00242131
19.604000,-0.01210654
19.608000,-0.00968523
19.612000,0.00484262
19.616000,0.00000000
19.620000,-0.02179177
19.624000,-0.02663438
19.628000,-0.04116223
19.632000,-0.05569007
19.636000,-0.07748184
19.640000,-0.09200969
19.644000,-0.10169492
19.648000,-0.10895884
19.652000,-0.12106538
19.656000,-0.14527845
19.660000,-0.14527845
19.664000,-0.12590799
19.668000,-0.13317191
19.672000,-0.11622276
19.676000,-0.08716707
19.680000,-0.06053269
19.684000,-0.02663438
19.688000,0.06537530
19.692000,0.21307506
19.696000,0.34140436
19.700000,0.43825666
19.704000,0.52300242
19.708000,0.51815981
19.712000,0.29055690
19.716000,-0.15012107
19.720000,-0.53268765
19.724000,-0.73365617
19.728000,-0.76997579
19.732000,-0.71186441
19.736000,-0.59564165
19.740000,-0.45036320
19.744000,-0.34140436
19.748000,-0.24939467
19.752000,-0.20823245
19.756000,-0.17917676
19.760000,-0.16707022
19.764000,-0.14527845
19.768000,-0.14285714
19.772000,-0.14527845
19.776000,-0.13559322
19.780000,-0.14043584
19.784000,-0.15980630
19.788000,-0.15012107
19.792000,-0.15738499
19.796000,-0.15980630
19.800000,-0.15980630
19.804000,-0.16222760
19.808000,-0.15980630
19.812000,-0.15496368
19.816000,-0.14769976
19.820000,-0.15254237
19.824000,-0.15496368
19.828000,-0.16949153
19.832000,-0.17433414
19.836000,-0.18159806
19.840000,-0.18886199
19.844000,-0.17917676
19.848000,-0.18159806
19.852000,-0.18401937
19.856000,-0.16707022
19.860000,-0.17191283
19.864000,-0.17191283
19.868000,-0.18401937
19.872000,-0.19128329
19.876000,-0.20823245
19.880000,-0.21791768
19.884000,-0.22760291
19.888000,-0.23970944
19.892000,-0.24939467
19.896000,-0.24939467
19.900000,-0.25423729
19.904000,-0.25181598
19.908000,-0.26876513
19.912000,-0.26876513
19.916000,-0.27118644
19.920000,-0.28813559
19.924000,-0.29539952
19.928000,-0.30992736
19.932000,-0.31719128
19.936000,-0.32445521
19.940000,-0.32445521
19.944000,-0.32445521
19.948000,-0.32929782
19.952000,-0.33171913
19.956000,-0.33656174
19.960000,-0.35351090
19.964000,-0.35108959
19.968000,-0.35835351
19.972000,-0.36803874
19.976000,-0.37772397
19.980000,-0.37772397
19.984000,-0.36319613
19.988000,-0.35351090
19.992000,-0.35593220
19.996000,-0.34140436
20.000000,-0.33656174
20.004000,-0.31476998
20.008000,-0.30750605
20.012000,-0.29539952
20.016000,-0.26876513
20.020000,-0.24213075
20.024000,-0.22276029
20.028000,-0.20338983
20.032000,-0.16464891
20.036000,-0.14285714
20.040000,-0.12348668
20.044000,-0.11138015
20.048000,-0.10169492
20.052000,-0.09200969
20.056000,-0.07990315
20.060000,-0.06537530
20.064000,-0.06537530
20.068000,-0.05811138
20.072000,-0.04842615
20.076000,-0.04600484
20.080000,-0.03389831
20.084000,-0.04358354
20.088000,-0.04358354
20.092000,-0.03389831
20.096000,-0.02421308
20.100000,-0.04116223
20.104000,-0.05084746
20.108000,-0.04600484
20.112000,-0.04358354
20.116000,-0.04842615
20.120000,-0.03631961
20.124000,-0.03147700
20.128000,-0.02905569
20.132000,-0.04358354
20.136000,-0.04358354
20.140000,-0.05569007
20.144000,-0.05811138
20.148000,-0.06053269
20.152000,-0.05811138
20.156000,-0.05811138
20.160000,-0.05326877
20.164000,-0.05326877
20.168000,-0.05811138
20.172000,-0.04116223
20.176000,-0.04358354
20.180000,-0.05326877
20.184000,-0.05569007
20.188000,-0.07506053
20.192000,-0.07263923
20.196000,-0.07263923
20.200000,-0.06779661
20.204000,-0.07990315
20.208000,-0.06295400
20.212000,-0.07021792
20.216000,-0.07506053
20.220000,-0.07748184
20.224000,-0.07263923
20.228000,-0.08958838
20.232000,-0.07990315
20.236000,-0.07748184
20.240000,-0.08474576
20.244000,-0.08474576
20.248000,-0.07506053
20.252000,-0.07263923
20.256000,-0.06295400
20.260000,-0.05326877
20.264000,-0.06053269
20.268000,-0.06053269
20.272000,-0.05811138
20.276000,-0.05811138
20.280000,-0.05569007
20.284000,-0.07990315
20.288000,-0.07748184
20.292000,-0.08716707
20.296000,-0.07263923
20.300000,-0.06295400
20.304000,-0.07990315
20.308000,-0.08958838
20.312000,-0.09685230
20.316000,-0.07263923
20.320000,-0.06295400
20.324000,-0.06295400
20.328000,-0.07748184
20.332000,-0.09200969
20.336000,-0.09443099
20.340000,-0.07990315
20.344000,-0.05326877
20.348000,-0.05326877
20.352000,-0.04358354
20.356000,-0.01452785
20.360000,-0.01937046
20.364000,-0.01937046
20.368000,-0.03874092
20.372000,-0.03147700
20.376000,-0.03389831
20.380000,-0.02905569
20.384000,-0.01937046
20.388000,-0.00242131
20.392000,-0.00484262
20.396000,-0.01937046
20.400000,-0.02663438
20.404000,-0.02905569
20.408000,-0.02421308
20.412000,-0.02421308
20.416000,-0.03389831
20.420000,-0.04358354
20.424000,-0.02179177
20.428000,-0.01452785
20.432000,-0.01937046
20.436000,-0.01210654
20.440000,0.00968523
20.444000,0.00968523
20.448000,0.01937046
20.452000,0.02421308
20.456000,0.02663438
20.460000,0.01937046
20.464000,0.02905569
20.468000,0.02421308
20.472000,0.02179177
20.476000,0.02421308
20.480000,0.03874092
20.484000,0.04116223
20.488000,0.02663438
20.492000,0.01210654
20.496000,0.00000000
20.500000,0.00000000
20.504000,-0.01937046
20.508000,-0.06053269
20.512000,-0.14043584
20.516000,-0.17433414
20.520000,-0.18401937
20.524000,-0.17917676
20.528000,-0.16707022
20.532000,-0.16222760
20.536000,-0.15012107
20.540000,-0.15012107
20.544000,-0.16707022
20.548000,-0.15496368
20.552000,-0.13075061
20.556000,-0.04600484
20.560000,0.11864407
20.564000,0.31234867
20.568000,0.43583535
20.572000,0.53026634
20.576000,0.55932203
20.580000,0.38740920
20.584000,-0.02905569
20.588000,-0.45762712
20.592000,-0.71670702
20.596000,-0.82324455
20.600000,-0.80629540
20.604000,-0.74818402
20.608000,-0.62953995
20.612000,-0.47699758
20.616000,-0.34382567
20.620000,-0.26634383
20.624000,-0.24697337
20.628000,-0.23970944
20.632000,-0.22760291
20.636000,-0.22518160
20.640000,-0.21065375
20.644000,-0.20823245
20.648000,-0.20823245
20.652000,-0.20338983
20.656000,-0.20338983
20.660000,-0.20096852
20.664000,-0.19370460
20.668000,-0.21065375
20.672000,-0.21065375
20.676000,-0.20823245
20.680000,-0.21307506
20.684000,-0.23244552
20.688000,-0.23728814
20.692000,-0.22276029
20.696000,-0.22518160
20.700000,-0.21065375
20.704000,-0.21791768
20.708000,-0.22518160
20.712000,-0.22760291
20.716000,-0.23244552
20.720000,-0.25665860
20.724000,-0.26392252
20.728000,-0.26392252
20.732000,-0.25423729
20.736000,-0.24697337
20.740000,-0.25423729
20.744000,-0.26150121
20.748000,-0.28087167
20.752000,-0.28813559
20.756000,-0.29297821
20.760000,-0.30992736
20.764000,-0.32929782
20.768000,-0.33414044
20.772000,-0.34866828
20.776000,-0.35835351
20.780000,-0.37288136
20.784000,-0.38256659
20.788000,-0.39951574
20.792000,-0.41646489
20.796000,-0.43341404
20.800000,-0.42857143
20.804000,-0.43825666
20.808000,-0.45520581
20.812000,-0.48184019
20.816000,-0.48426150
20.820000,-0.48910412
20.824000,-0.50121065
20.828000,-0.51573850
20.832000,-0.52058111
20.836000,-0.52300242
20.840000,-0.52542373
20.844000,-0.53268765
20.848000,-0.53026634
20.852000,-0.53268765
20.856000,-0.52784504
20.860000,-0.52784504
20.864000,-0.51331719
20.868000,-0.49394673
20.872000,-0.47215496
20.876000,-0.43583535
20.880000,-0.40920097
20.884000,-0.37772397
20.888000,-0.36319613
20.892000,-0.34382567
20.896000,-0.32203390
20.900000,-0.30508475
20.904000,-0.29055690
20.908000,-0.26634383
20.912000,-0.24697337
20.916000,-0.23970944
20.920000,-0.21307506
20.924000,-0.18886199
20.928000,-0.17191283
20.932000,-0.16464891
20.936000,-0.15496368
20.940000,-0.15980630
20.944000,-0.15980630
20.948000,-0.15012107
20.952000,-0.15254237
20.956000,-0.14769976
20.960000,-0.13317191
20.964000,-0.12348668
20.968000,-0.11622276
20.972000,-0.10653753
20.976000,-0.11622276
20.980000,-0.13317191
20.984000,-0.12590799
20.988000,-0.12590799
20.992000,-0.12832930
20.996000,-0.12348668
21.000000,-0.13317191
21.004000,-0.13801453
21.008000,-0.13801453
21.012000,-0.13317191
21.016000,-0.13317191
21.020000,-0.12106538
21.024000,-0.12106538
21.028000,-0.12348668
21.032000,-0.13801453
21.036000,-0.15012107
21.040000,-0.14285714
21.044000,-0.14769976
21.048000,-0.14043584
21.052000,-0.13559322
21.056000,-0.13559322
21.060000,-0.14527845
21.064000,-0.14043584
21.068000,-0.13801453
21.072000,-0.14527845
21.076000,-0.15738499
21.080000,-0.16707022
21.084000,-0.15980630
21.088000,-0.16222760
21.092000,-0.15496368
21.096000,-0.15254237
21.100000,-0.13801453
21.104000,-0.13559322
21.108000,-0.14043584
21.112000,-0.15254237
21.116000,-0.15496368
21.120000,-0.17191283
21.124000,-0.16222760
21.128000,-0.15980630
21.132000,-0.15980630
21.136000,-0.15980630
21.140000,-0.15496368
21.144000,-0.15254237
21.148000,-0.15012107
21.152000,-0.14769976
21.156000,-0.15254237
21.160000,-0.15980630
21.164000,-0.16222760
21.168000,-0.16464891
21.172000,-0.16222760
21.176000,-0.15980630
21.180000,-0.15980630
21.184000,-0.15012107
21.188000,-0.14769976
21.192000,-0.15012107
21.196000,-0.14527845
21.200000,-0.14527845
21.204000,-0.15254237
21.208000,-0.17433414
21.212000,-0.17675545
21.216000,-0.16949153
21.220000,-0.17433414
21.224000,-0.15496368
21.228000,-0.14769976
21.232000,-0.14285714
21.236000,-0.15012107
21.240000,-0.14527845
21.244000,-0.15254237
21.248000,-0.15496368
21.252000,-0.16949153
21.256000,-0.17191283
21.260000,-0.16707022
21.264000,-0.16464891
21.268000,-0.15254237
21.272000,-0.15254237
21.276000,-0.13801453
21.280000,-0.14043584
21.284000,-0.13801453
21.288000,-0.12590799
21.292000,-0.10895884
21.296000,-0.11622276
21.300000,-0.10653753
21.304000,-0.10169492
21.308000,-0.08716707
21.312000,-0.07990315
21.316000,-0.06053269
21.320000,-0.06537530
21.324000,-0.06779661
21.328000,-0.06053269
21.332000,-0.06295400
21.336000,-0.08232446
21.340000,-0.09443099
21.344000,-0.10653753
21.348000,-0.12106538
21.352000,-0.12590799
21.356000,-0.14527845
21.360000,-0.15496368
21.364000,-0.15496368
21.368000,-0.14769976
21.372000,-0.15496368
21.376000,-0.16707022
21.380000,-0.16949153
21.384000,-0.17433414
21.388000,-0.17433414
21.392000,-0.16464891
21.396000,-0.14043584
21.400000,-0.09685230
21.404000,-0.03147700
21.408000,0.07506053
21.412000,0.23002421
21.416000,0.36077482
21.420000,0.44552058
21.424000,0.47699758
