time,amplitude,sr,360.0
0.000000,0.85827465
0.002778,0.85827465
0.005556,0.85827465
0.008333,0.85827465
0.011111,0.85827465
0.013889,0.85827465
0.016667,0.85827465
0.019444,0.85827465
0.022222,0.85915493
0.025000,0.86003521
0.027778,0.86707746
0.030556,0.86971831
0.033333,0.87411972
0.036111,0.87764085
0.038889,0.87940141
0.041667,0.87676056
0.044444,0.87235915
0.047222,0.87147887
0.050000,0.86883803
0.052778,0.86707746
0.055556,0.86707746
0.058333,0.86795775
0.061111,0.87147887
0.063889,0.87235915
0.066667,0.87235915
0.069444,0.87147887
0.072222,0.87235915
0.075000,0.87059859
0.077778,0.86971831
0.080556,0.86707746
0.083333,0.86707746
0.086111,0.86707746
0.088889,0.86355634
0.091667,0.86355634
0.094444,0.86619718
0.097222,0.86883803
0.100000,0.87059859
0.102778,0.87059859
0.105556,0.87059859
0.108333,0.86795775
0.111111,0.86619718
0.113889,0.86531690
0.116667,0.86619718
0.119444,0.86619718
0.122222,0.86883803
0.125000,0.86619718
0.127778,0.86619718
0.130556,0.86619718
0.133333,0.86795775
0.136111,0.87323944
0.138889,0.87588028
0.141667,0.87676056
0.144444,0.87323944
0.147222,0.87059859
0.150000,0.86531690
0.152778,0.86179577
0.155556,0.85651408
0.158333,0.85563380
0.161111,0.86091549
0.163889,0.86883803
0.166667,0.87235915
0.169444,0.87323944
0.172222,0.87147887
0.175000,0.86619718
0.177778,0.86267606
0.180556,0.86355634
0.183333,0.86355634
0.186111,0.86355634
0.188889,0.86795775
0.191667,0.86795775
0.194444,0.86795775
0.197222,0.86707746
0.200000,0.86707746
0.202778,0.86707746
0.205556,0.86795775
0.208333,0.86795775
0.211111,0.86883803
0.213889,0.86883803
0.216667,0.86971831
0.219444,0.87147887
0.222222,0.86883803
0.225000,0.86619718
0.227778,0.86355634
0.230556,0.86443662
0.233333,0.86883803
0.236111,0.87500000
0.238889,0.87588028
0.241667,0.87147887
0.244444,0.86619718
0.247222,0.86179577
0.250000,0.85915493
0.252778,0.86179577
0.255556,0.86531690
0.258333,0.86619718
0.261111,0.86707746
0.263889,0.86707746
0.266667,0.86531690
0.269444,0.86531690
0.272222,0.86531690
0.275000,0.86443662
0.277778,0.86443662
0.280556,0.86795775
0.283333,0.87059859
0.286111,0.87059859
0.288889,0.87059859
0.291667,0.87059859
0.294444,0.86971831
0.297222,0.86971831
0.300000,0.86619718
0.302778,0.86003521
0.305556,0.85739437
0.308333,0.85651408
0.311111,0.85915493
0.313889,0.86355634
0.316667,0.86883803
0.319444,0.87147887
0.322222,0.86971831
0.325000,0.87059859
0.327778,0.86883803
0.330556,0.86883803
0.333333,0.86883803
0.336111,0.86795775
0.338889,0.86267606
0.341667,0.86267606
0.344444,0.86267606
0.347222,0.86531690
0.350000,0.86883803
0.352778,0.86707746
0.355556,0.86443662
0.358333,0.86355634
0.361111,0.86355634
0.363889,0.86707746
0.366667,0.87059859
0.369444,0.86971831
0.372222,0.86443662
0.375000,0.85827465
0.377778,0.85563380
0.380556,0.85475352
0.383333,0.85563380
0.386111,0.85651408
0.388889,0.86003521
0.391667,0.86443662
0.394444,0.86619718
0.397222,0.87059859
0.400000,0.87059859
0.402778,0.87147887
0.405556,0.86707746
0.408333,0.86355634
0.411111,0.86091549
0.413889,0.86003521
0.416667,0.86091549
0.419444,0.86267606
0.422222,0.86707746
0.425000,0.87059859
0.427778,0.87411972
0.430556,0.87500000
0.433333,0.87500000
0.436111,0.87147887
0.438889,0.86971831
0.441667,0.86443662
0.444444,0.85827465
0.447222,0.85739437
0.450000,0.85387324
0.452778,0.85299296
0.455556,0.85387324
0.458333,0.85651408
0.461111,0.86003521
0.463889,0.86619718
0.466667,0.87411972
0.469444,0.88028169
0.472222,0.88116197
0.475000,0.87940141
0.477778,0.87059859
0.480556,0.86179577
0.483333,0.85475352
0.486111,0.85035211
0.488889,0.85035211
0.491667,0.84859155
0.494444,0.85387324
0.497222,0.86003521
0.500000,0.86531690
0.502778,0.86795775
0.505556,0.86883803
0.508333,0.86971831
0.511111,0.87147887
0.513889,0.87588028
0.516667,0.87588028
0.519444,0.87588028
0.522222,0.87147887
0.525000,0.86443662
0.527778,0.85739437
0.530556,0.85211268
0.533333,0.85299296
0.536111,0.85299296
0.538889,0.85827465
0.541667,0.86179577
0.544444,0.86707746
0.547222,0.87059859
0.550000,0.86795775
0.552778,0.86707746
0.555556,0.86795775
0.558333,0.86707746
0.561111,0.86267606
0.563889,0.86267606
0.566667,0.86091549
0.569444,0.86267606
0.572222,0.86267606
0.575000,0.86267606
0.577778,0.86619718
0.580556,0.86531690
0.583333,0.86443662
0.586111,0.86267606
0.588889,0.86003521
0.591667,0.85739437
0.594444,0.85475352
0.597222,0.85739437
0.600000,0.85915493
0.602778,0.86179577
0.605556,0.86619718
0.608333,0.86619718
0.611111,0.86795775
0.613889,0.86883803
0.616667,0.86707746
0.619444,0.86707746
0.622222,0.86619718
0.625000,0.86531690
0.627778,0.86267606
0.630556,0.86355634
0.633333,0.86179577
0.636111,0.86091549
0.638889,0.86091549
0.641667,0.86091549
0.644444,0.86531690
0.647222,0.86443662
0.650000,0.86355634
0.652778,0.86267606
0.655556,0.86003521
0.658333,0.85827465
0.661111,0.86003521
0.663889,0.86091549
0.666667,0.86707746
0.669444,0.86971831
0.672222,0.87147887
0.675000,0.87147887
0.677778,0.87235915
0.680556,0.87147887
0.683333,0.86971831
0.686111,0.86443662
0.688889,0.86091549
0.691667,0.86091549
0.694444,0.86003521
0.697222,0.85915493
0.700000,0.86003521
0.702778,0.85827465
0.705556,0.85827465
0.708333,0.85915493
0.711111,0.85915493
0.713889,0.86267606
0.716667,0.86443662
0.719444,0.86707746
0.722222,0.86707746
0.725000,0.86443662
0.727778,0.86355634
0.730556,0.86355634
0.733333,0.86707746
0.736111,0.87147887
0.738889,0.87676056
0.741667,0.87588028
0.744444,0.87059859
0.747222,0.86355634
0.750000,0.85739437
0.752778,0.85211268
0.755556,0.85299296
0.758333,0.85475352
0.761111,0.86003521
0.763889,0.86531690
0.766667,0.86619718
0.769444,0.86707746
0.772222,0.86619718
0.775000,0.86531690
0.777778,0.86443662
0.780556,0.86267606
0.783333,0.86003521
0.786111,0.85651408
0.788889,0.85563380
0.791667,0.85827465
0.794444,0.86179577
0.797222,0.86443662
0.800000,0.86619718
0.802778,0.86795775
0.805556,0.86883803
0.808333,0.86619718
0.811111,0.86179577
0.813889,0.86179577
0.816667,0.86091549
0.819444,0.86179577
0.822222,0.86619718
0.825000,0.86795775
0.827778,0.87059859
0.830556,0.87235915
0.833333,0.86795775
0.836111,0.86531690
0.838889,0.86355634
0.841667,0.86091549
0.844444,0.86443662
0.847222,0.86971831
0.850000,0.87147887
0.852778,0.86971831
0.855556,0.86531690
0.858333,0.86003521
0.861111,0.85651408
0.863889,0.85739437
0.866667,0.86179577
0.869444,0.86707746
0.872222,0.87059859
0.875000,0.87235915
0.877778,0.87411972
0.880556,0.87059859
0.883333,0.86619718
0.886111,0.86355634
0.888889,0.86267606
0.891667,0.86531690
0.894444,0.86619718
0.897222,0.86795775
0.900000,0.87059859
0.902778,0.87059859
0.905556,0.86883803
0.908333,0.86707746
0.911111,0.86531690
0.913889,0.86443662
0.916667,0.86355634
0.919444,0.86355634
0.922222,0.86355634
0.925000,0.86707746
0.927778,0.86795775
0.930556,0.86707746
0.933333,0.86707746
0.936111,0.86355634
0.938889,0.86619718
0.941667,0.86707746
0.944444,0.86883803
0.947222,0.87059859
0.950000,0.86883803
0.952778,0.86795775
0.955556,0.86443662
0.958333,0.86443662
0.961111,0.86003521
0.963889,0.85915493
0.966667,0.86267606
0.969444,0.86531690
0.972222,0.86971831
0.975000,0.87411972
0.977778,0.87588028
0.980556,0.87411972
0.983333,0.86795775
0.986111,0.86091549
0.988889,0.85475352
0.991667,0.85299296
0.994444,0.85915493
0.997222,0.86267606
1.000000,0.86443662
1.002778,0.86795775
1.005556,0.86971831
1.008333,0.86531690
1.011111,0.86619718
1.013889,0.86443662
1.016667,0.86883803
1.019444,0.86795775
1.022222,0.87059859
1.025000,0.87059859
1.027778,0.86707746
1.030556,0.86795775
1.033333,0.86971831
1.036111,0.87588028
1.038889,0.87940141
1.041667,0.87940141
1.044444,0.87323944
1.047222,0.86619718
1.050000,0.85739437
1.052778,0.84771127
1.055556,0.84419014
1.058333,0.84330986
1.061111,0.85475352
1.063889,0.86003521
1.066667,0.86795775
1.069444,0.87147887
1.072222,0.87323944
1.075000,0.87147887
1.077778,0.86883803
1.080556,0.86707746
1.083333,0.86619718
1.086111,0.86531690
1.088889,0.86619718
1.091667,0.86619718
1.094444,0.86971831
1.097222,0.87059859
1.100000,0.87323944
1.102778,0.87500000
1.105556,0.87323944
1.108333,0.86619718
1.111111,0.86091549
1.113889,0.86091549
1.116667,0.86707746
1.119444,0.87059859
1.122222,0.87235915
1.125000,0.86971831
1.127778,0.86531690
1.130556,0.86179577
1.133333,0.86003521
1.136111,0.86267606
1.138889,0.86707746
1.141667,0.87588028
1.144444,0.88644366
1.147222,0.89348592
1.150000,0.89436620
1.152778,0.88468310
1.155556,0.87588028
1.158333,0.86795775
1.161111,0.86531690
1.163889,0.86795775
1.166667,0.87235915
1.169444,0.87764085
1.172222,0.88380282
1.175000,0.88468310
1.177778,0.88468310
1.180556,0.88468310
1.183333,0.87940141
1.186111,0.87588028
1.188889,0.87235915
1.191667,0.86883803
1.194444,0.86795775
1.197222,0.87059859
1.200000,0.87235915
1.202778,0.87500000
1.205556,0.87500000
1.208333,0.87500000
1.211111,0.87411972
1.213889,0.87411972
1.216667,0.87500000
1.219444,0.87588028
1.222222,0.87676056
1.225000,0.87764085
1.227778,0.87588028
1.230556,0.87588028
1.233333,0.87588028
1.236111,0.87588028
1.238889,0.87588028
1.241667,0.87411972
1.244444,0.86883803
1.247222,0.86443662
1.250000,0.85827465
1.252778,0.85387324
1.255556,0.85123239
1.258333,0.85299296
1.261111,0.85475352
1.263889,0.85827465
1.266667,0.86267606
1.269444,0.86531690
1.272222,0.86707746
1.275000,0.86179577
1.277778,0.85827465
1.280556,0.85915493
1.283333,0.85915493
1.286111,0.85827465
1.288889,0.86003521
1.291667,0.86531690
1.294444,0.86883803
1.297222,0.86795775
1.300000,0.86707746
1.302778,0.86531690
1.305556,0.86355634
1.308333,0.86179577
1.311111,0.86179577
1.313889,0.86267606
1.316667,0.86443662
1.319444,0.86707746
1.322222,0.86883803
1.325000,0.87059859
1.327778,0.87059859
1.330556,0.86795775
1.333333,0.86795775
1.336111,0.86795775
1.338889,0.87323944
1.341667,0.87852113
1.344444,0.88556338
1.347222,0.89348592
1.350000,0.89788732
1.352778,0.90316901
1.355556,0.91021127
1.358333,0.92165493
1.361111,0.93838028
1.363889,0.95334507
1.366667,0.96126761
1.369444,0.95598592
1.372222,0.93485915
1.375000,0.89964789
1.377778,0.86267606
1.380556,0.83274648
1.383333,0.81690141
1.386111,0.80985915
1.388889,0.81250000
1.391667,0.81690141
1.394444,0.82394366
1.397222,0.82746479
1.400000,0.83098592
1.402778,0.83010563
1.405556,0.82658451
1.408333,0.82218310
1.411111,0.81690141
1.413889,0.81338028
1.416667,0.81338028
1.419444,0.81602113
1.422222,0.82130282
1.425000,0.83010563
1.427778,0.83978873
1.430556,0.84242958
1.433333,0.84771127
1.436111,0.84419014
1.438889,0.83890845
1.441667,0.83186620
1.444444,0.83010563
1.447222,0.82922535
1.450000,0.83098592
1.452778,0.83538732
1.455556,0.83890845
1.458333,0.83890845
1.461111,0.84507042
1.463889,0.84947183
1.466667,0.85563380
1.469444,0.86267606
1.472222,0.86971831
1.475000,0.86971831
1.477778,0.87059859
1.480556,0.86883803
1.483333,0.86707746
1.486111,0.86267606
1.488889,0.86091549
1.491667,0.86179577
1.494444,0.86267606
1.497222,0.86443662
1.500000,0.86443662
1.502778,0.86531690
1.505556,0.86707746
1.508333,0.86795775
1.511111,0.86707746
1.513889,0.86971831
1.516667,0.86707746
1.519444,0.86531690
1.522222,0.86179577
1.525000,0.86267606
1.527778,0.86707746
1.530556,0.86883803
1.533333,0.87235915
1.536111,0.87147887
1.538889,0.87323944
1.541667,0.86971831
1.544444,0.86795775
1.547222,0.86707746
1.550000,0.86971831
1.552778,0.87500000
1.555556,0.88116197
1.558333,0.88380282
1.561111,0.88204225
1.563889,0.87411972
1.566667,0.86619718
1.569444,0.86355634
1.572222,0.86531690
1.575000,0.86795775
1.577778,0.87147887
1.580556,0.87676056
1.583333,0.87940141
1.586111,0.87764085
1.588889,0.87676056
1.591667,0.87588028
1.594444,0.87588028
1.597222,0.87852113
1.600000,0.88028169
1.602778,0.87940141
1.605556,0.87940141
1.608333,0.88204225
1.611111,0.88292254
1.613889,0.88468310
1.616667,0.88468310
1.619444,0.88556338
1.622222,0.88732394
1.625000,0.88644366
1.627778,0.88732394
1.630556,0.88468310
1.633333,0.88820423
1.636111,0.89260563
1.638889,0.89612676
1.641667,0.89964789
1.644444,0.90052817
1.647222,0.90140845
1.650000,0.89964789
1.652778,0.89788732
1.655556,0.89524648
1.658333,0.89612676
1.661111,0.89612676
1.663889,0.90228873
1.666667,0.90669014
1.669444,0.91021127
1.672222,0.91285211
1.675000,0.91197183
1.677778,0.91021127
1.680556,0.90492958
1.683333,0.90228873
1.686111,0.89964789
1.688889,0.89876761
1.691667,0.89788732
1.694444,0.90140845
1.697222,0.90404930
1.700000,0.90757042
1.702778,0.91109155
1.705556,0.91285211
1.708333,0.91197183
1.711111,0.90845070
1.713889,0.90316901
1.716667,0.89612676
1.719444,0.89436620
1.722222,0.89436620
1.725000,0.89524648
1.727778,0.89700704
1.730556,0.89788732
1.733333,0.89700704
1.736111,0.89172535
1.738889,0.88996479
1.741667,0.88468310
1.744444,0.88292254
1.747222,0.88116197
1.750000,0.88380282
1.752778,0.88292254
1.755556,0.88116197
1.758333,0.87764085
1.761111,0.87588028
1.763889,0.87323944
1.766667,0.87235915
1.769444,0.86971831
1.772222,0.87235915
1.775000,0.87500000
1.777778,0.87411972
1.780556,0.87500000
1.783333,0.87411972
1.786111,0.87059859
1.788889,0.86531690
1.791667,0.86355634
1.794444,0.86091549
1.797222,0.86179577
1.800000,0.86443662
1.802778,0.86795775
1.805556,0.87059859
1.808333,0.87147887
1.811111,0.87235915
1.813889,0.87147887
1.816667,0.86971831
1.819444,0.86971831
1.822222,0.86795775
1.825000,0.86531690
1.827778,0.86883803
1.830556,0.87147887
1.833333,0.87411972
1.836111,0.87411972
1.838889,0.87764085
1.841667,0.87764085
1.844444,0.87940141
1.847222,0.88292254
1.850000,0.88292254
1.852778,0.88204225
1.855556,0.88116197
1.858333,0.87940141
1.861111,0.87676056
1.863889,0.87588028
1.866667,0.87588028
1.869444,0.87588028
1.872222,0.87852113
1.875000,0.88028169
1.877778,0.88028169
1.880556,0.88028169
1.883333,0.88028169
1.886111,0.87852113
1.888889,0.87323944
1.891667,0.87059859
1.894444,0.87147887
1.897222,0.87411972
1.900000,0.87764085
1.902778,0.88556338
1.905556,0.89084507
1.908333,0.89084507
1.911111,0.88380282
1.913889,0.88028169
1.916667,0.87852113
1.919444,0.87500000
1.922222,0.87500000
1.925000,0.87500000
1.927778,0.87852113
1.930556,0.87940141
1.933333,0.88028169
1.936111,0.88116197
1.938889,0.88028169
1.941667,0.87852113
1.944444,0.87676056
1.947222,0.87411972
1.950000,0.87147887
1.952778,0.87411972
1.955556,0.87411972
1.958333,0.87588028
1.961111,0.87852113
1.963889,0.87940141
1.966667,0.88028169
1.969444,0.87852113
1.972222,0.88116197
1.975000,0.88204225
1.977778,0.88204225
1.980556,0.88380282
1.983333,0.88380282
1.986111,0.88204225
1.988889,0.87588028
1.991667,0.87147887
1.994444,0.87059859
1.997222,0.87235915
2.000000,0.87940141
2.002778,0.88116197
2.005556,0.88116197
2.008333,0.87764085
2.011111,0.87500000
2.013889,0.87500000
2.016667,0.87852113
2.019444,0.88116197
2.022222,0.88292254
2.025000,0.88380282
2.027778,0.88644366
2.030556,0.88820423
2.033333,0.89348592
2.036111,0.90316901
2.038889,0.92077465
2.041667,0.94278169
2.044444,0.96566901
2.047222,0.98415493
2.050000,0.98855634
2.052778,0.97887324
2.055556,0.94718310
2.058333,0.90492958
2.061111,0.86707746
2.063889,0.83890845
2.066667,0.82482394
2.069444,0.82394366
2.072222,0.82834507
2.075000,0.83274648
2.077778,0.84154930
2.080556,0.84771127
2.083333,0.84771127
2.086111,0.84507042
2.088889,0.83890845
2.091667,0.83186620
2.094444,0.83098592
2.097222,0.83450704
2.100000,0.83978873
2.102778,0.84859155
2.105556,0.85651408
2.108333,0.85651408
2.111111,0.85211268
2.113889,0.84419014
2.116667,0.83362676
2.119444,0.82922535
2.122222,0.82834507
2.125000,0.83186620
2.127778,0.83978873
2.130556,0.84859155
2.133333,0.85123239
2.136111,0.85475352
2.138889,0.85563380
2.141667,0.85651408
2.144444,0.85915493
2.147222,0.86355634
2.150000,0.86971831
2.152778,0.87500000
2.155556,0.87500000
2.158333,0.87411972
2.161111,0.87588028
2.163889,0.87235915
2.166667,0.87500000
2.169444,0.87764085
2.172222,0.87940141
2.175000,0.88292254
2.177778,0.88468310
2.180556,0.88380282
2.183333,0.88468310
2.186111,0.88292254
2.188889,0.87940141
2.191667,0.87588028
2.194444,0.87235915
2.197222,0.87411972
2.200000,0.87411972
2.202778,0.87676056
2.205556,0.88028169
2.208333,0.87940141
2.211111,0.88204225
2.213889,0.87764085
2.216667,0.87588028
2.219444,0.87500000
2.222222,0.87676056
2.225000,0.87940141
2.227778,0.88028169
2.230556,0.87852113
2.233333,0.87764085
2.236111,0.87676056
2.238889,0.87940141
2.241667,0.87940141
2.244444,0.88380282
2.247222,0.88644366
2.250000,0.88644366
2.252778,0.88204225
2.255556,0.88292254
2.258333,0.88116197
2.261111,0.88204225
2.263889,0.88644366
2.266667,0.89172535
2.269444,0.89348592
2.272222,0.89348592
2.275000,0.89612676
2.277778,0.89788732
2.280556,0.89788732
2.283333,0.89700704
2.286111,0.89964789
2.288889,0.89964789
2.291667,0.89964789
2.294444,0.90228873
2.297222,0.90316901
2.300000,0.90669014
2.302778,0.91109155
2.305556,0.91549296
2.308333,0.91901408
2.311111,0.91989437
2.313889,0.92253521
2.316667,0.92341549
2.319444,0.91901408
2.322222,0.91461268
2.325000,0.91109155
2.327778,0.91197183
2.330556,0.91373239
2.333333,0.91813380
2.336111,0.92429577
2.338889,0.92517606
2.341667,0.92429577
2.344444,0.92341549
2.347222,0.92253521
2.350000,0.92429577
2.352778,0.92341549
2.355556,0.92341549
2.358333,0.92253521
2.361111,0.91901408
2.363889,0.91637324
2.366667,0.91197183
2.369444,0.90933099
2.372222,0.90580986
2.375000,0.90757042
2.377778,0.90669014
2.380556,0.90669014
2.383333,0.90404930
2.386111,0.90052817
2.388889,0.89700704
2.391667,0.89612676
2.394444,0.89612676
2.397222,0.89084507
2.400000,0.88380282
2.402778,0.87940141
2.405556,0.88028169
2.408333,0.88292254
2.411111,0.88556338
2.413889,0.88556338
2.416667,0.88380282
2.419444,0.87852113
2.422222,0.87588028
2.425000,0.87411972
2.427778,0.87411972
2.430556,0.87323944
2.433333,0.87588028
2.436111,0.87764085
2.438889,0.87764085
2.441667,0.87852113
2.444444,0.87764085
2.447222,0.87588028
2.450000,0.87411972
2.452778,0.87147887
2.455556,0.86883803
2.458333,0.86707746
2.461111,0.86883803
2.463889,0.86883803
2.466667,0.87147887
2.469444,0.87235915
2.472222,0.87411972
2.475000,0.87588028
2.477778,0.87940141
2.480556,0.87852113
2.483333,0.87588028
2.486111,0.87323944
2.488889,0.87235915
2.491667,0.87147887
2.494444,0.87323944
2.497222,0.87323944
2.500000,0.87500000
2.502778,0.87764085
2.505556,0.88116197
2.508333,0.87852113
2.511111,0.87764085
2.513889,0.86971831
2.516667,0.86795775
2.519444,0.86619718
2.522222,0.86531690
2.525000,0.86707746
2.527778,0.86707746
2.530556,0.87147887
2.533333,0.87147887
2.536111,0.87235915
2.538889,0.87764085
2.541667,0.87764085
2.544444,0.88028169
2.547222,0.88116197
2.550000,0.88204225
2.552778,0.88028169
2.555556,0.87588028
2.558333,0.87235915
2.561111,0.86707746
2.563889,0.86443662
2.566667,0.86091549
2.569444,0.86355634
2.572222,0.86443662
2.575000,0.86971831
2.577778,0.87323944
2.580556,0.87852113
2.583333,0.88380282
2.586111,0.88556338
2.588889,0.88204225
2.591667,0.88204225
2.594444,0.87940141
2.597222,0.87852113
2.600000,0.88028169
2.602778,0.88116197
2.605556,0.88116197
2.608333,0.88116197
2.611111,0.87764085
2.613889,0.87500000
2.616667,0.87147887
2.619444,0.86531690
2.622222,0.86443662
2.625000,0.86355634
2.627778,0.86179577
2.630556,0.86179577
2.633333,0.86179577
2.636111,0.86443662
2.638889,0.86707746
2.641667,0.86971831
2.644444,0.87411972
2.647222,0.87323944
2.650000,0.87411972
2.652778,0.87323944
2.655556,0.86971831
2.658333,0.86971831
2.661111,0.87235915
2.663889,0.87411972
2.666667,0.87588028
2.669444,0.87764085
2.672222,0.88028169
2.675000,0.88028169
2.677778,0.87940141
2.680556,0.87852113
2.683333,0.87676056
2.686111,0.87852113
2.688889,0.87940141
2.691667,0.88028169
2.694444,0.87940141
2.697222,0.87676056
2.700000,0.87500000
2.702778,0.87323944
2.705556,0.87764085
2.708333,0.87940141
2.711111,0.88116197
2.713889,0.87588028
2.716667,0.86971831
2.719444,0.86883803
2.722222,0.86883803
2.725000,0.87147887
2.727778,0.87411972
2.730556,0.87411972
2.733333,0.87676056
2.736111,0.87940141
2.738889,0.87764085
2.741667,0.87852113
2.744444,0.87764085
2.747222,0.87500000
2.750000,0.87500000
2.752778,0.87588028
2.755556,0.87940141
2.758333,0.88468310
2.761111,0.89260563
2.763889,0.89876761
2.766667,0.90669014
2.769444,0.92165493
2.772222,0.93573944
2.775000,0.97095070
2.777778,0.98679577
2.780556,0.99823944
2.783333,0.99647887
2.786111,0.97887324
2.788889,0.94278169
2.791667,0.89612676
2.794444,0.85035211
2.797222,0.81954225
2.800000,0.80369718
2.802778,0.79929577
2.805556,0.80545775
2.808333,0.81426056
2.811111,0.82394366
2.813889,0.83274648
2.816667,0.83978873
2.819444,0.84330986
2.822222,0.84330986
2.825000,0.83802817
2.827778,0.82922535
2.830556,0.82130282
2.833333,0.81866197
2.836111,0.81954225
2.838889,0.82570423
2.841667,0.83274648
2.844444,0.84066901
2.847222,0.84507042
2.850000,0.84330986
2.852778,0.84154930
2.855556,0.83890845
2.858333,0.83626761
2.861111,0.83714789
2.863889,0.84242958
2.866667,0.84507042
2.869444,0.85123239
2.872222,0.85563380
2.875000,0.85563380
2.877778,0.85475352
2.880556,0.85387324
2.883333,0.85211268
2.886111,0.85211268
2.888889,0.85475352
2.891667,0.86091549
2.894444,0.86619718
2.897222,0.87147887
2.900000,0.87676056
2.902778,0.87940141
2.905556,0.88116197
2.908333,0.88468310
2.911111,0.88908451
2.913889,0.89260563
2.916667,0.88908451
2.919444,0.88292254
2.922222,0.87235915
2.925000,0.85915493
2.927778,0.85035211
2.930556,0.85035211
2.933333,0.85563380
2.936111,0.86443662
2.938889,0.87323944
2.941667,0.87852113
2.944444,0.88028169
2.947222,0.87940141
2.950000,0.88116197
2.952778,0.87940141
2.955556,0.87940141
2.958333,0.88028169
2.961111,0.88204225
2.963889,0.88028169
2.966667,0.87852113
2.969444,0.87764085
2.972222,0.87676056
2.975000,0.87235915
2.977778,0.87588028
2.980556,0.87588028
2.983333,0.88116197
2.986111,0.88116197
2.988889,0.88204225
2.991667,0.88292254
2.994444,0.88292254
2.997222,0.88380282
3.000000,0.88468310
3.002778,0.88204225
3.005556,0.87940141
3.008333,0.87764085
3.011111,0.87940141
3.013889,0.88204225
3.016667,0.88468310
3.019444,0.88556338
3.022222,0.88996479
3.025000,0.89260563
3.027778,0.89436620
3.030556,0.89700704
3.033333,0.89964789
3.036111,0.90580986
3.038889,0.90669014
3.041667,0.91021127
3.044444,0.91373239
3.047222,0.91285211
3.050000,0.91021127
3.052778,0.91109155
3.055556,0.91109155
3.058333,0.91021127
3.061111,0.90933099
3.063889,0.91021127
3.066667,0.91197183
3.069444,0.91461268
3.072222,0.91637324
3.075000,0.91637324
3.077778,0.92077465
3.080556,0.91637324
3.083333,0.91549296
3.086111,0.91373239
3.088889,0.91373239
3.091667,0.91637324
3.094444,0.91637324
3.097222,0.91637324
3.100000,0.91373239
3.102778,0.91373239
3.105556,0.90933099
3.108333,0.90492958
3.111111,0.90316901
3.113889,0.90140845
3.116667,0.90052817
3.119444,0.90052817
3.122222,0.89348592
3.125000,0.88732394
3.127778,0.88380282
3.130556,0.88204225
3.133333,0.88116197
3.136111,0.88732394
3.138889,0.88996479
3.141667,0.89260563
3.144444,0.89436620
3.147222,0.89084507
3.150000,0.88556338
3.152778,0.87500000
3.155556,0.86707746
3.158333,0.86355634
3.161111,0.86179577
3.163889,0.86355634
3.166667,0.86795775
3.169444,0.87500000
3.172222,0.87852113
3.175000,0.88028169
3.177778,0.87940141
3.180556,0.87676056
3.183333,0.87500000
3.186111,0.87147887
3.188889,0.86883803
3.191667,0.86795775
3.194444,0.86971831
3.197222,0.86795775
3.200000,0.86707746
3.202778,0.86707746
3.205556,0.86443662
3.208333,0.86531690
3.211111,0.86795775
3.213889,0.87147887
3.216667,0.87323944
3.219444,0.87411972
3.222222,0.87500000
3.225000,0.87147887
3.227778,0.86707746
3.230556,0.86619718
3.233333,0.86267606
3.236111,0.86531690
3.238889,0.86795775
3.241667,0.87323944
3.244444,0.87940141
3.247222,0.88380282
3.250000,0.88644366
3.252778,0.88468310
3.255556,0.87940141
3.258333,0.87411972
3.261111,0.87235915
3.263889,0.87235915
3.266667,0.87059859
3.269444,0.87500000
3.272222,0.87676056
3.275000,0.87852113
3.277778,0.88292254
3.280556,0.88028169
3.283333,0.88028169
3.286111,0.87588028
3.288889,0.87323944
3.291667,0.86883803
3.294444,0.86619718
3.297222,0.86883803
3.300000,0.86795775
3.302778,0.86795775
3.305556,0.86971831
3.308333,0.87323944
3.311111,0.87764085
3.313889,0.87676056
3.316667,0.87852113
3.319444,0.87588028
3.322222,0.87147887
3.325000,0.86443662
3.327778,0.86267606
3.330556,0.86795775
3.333333,0.87059859
3.336111,0.87411972
3.338889,0.87588028
3.341667,0.87411972
3.344444,0.87235915
3.347222,0.87323944
3.350000,0.87147887
3.352778,0.87059859
3.355556,0.87235915
3.358333,0.87500000
3.361111,0.87588028
3.363889,0.87411972
3.366667,0.87147887
3.369444,0.86619718
3.372222,0.86267606
3.375000,0.85739437
3.377778,0.85739437
3.380556,0.85563380
3.383333,0.85739437
3.386111,0.86091549
3.388889,0.86531690
3.391667,0.86971831
3.394444,0.87411972
3.397222,0.87940141
3.400000,0.88380282
3.402778,0.88468310
3.405556,0.88204225
3.408333,0.87235915
3.411111,0.86355634
3.413889,0.85739437
3.416667,0.85387324
3.419444,0.85299296
3.422222,0.85739437
3.425000,0.86003521
3.427778,0.86531690
3.430556,0.86795775
3.433333,0.86883803
3.436111,0.86883803
3.438889,0.86883803
3.441667,0.86707746
3.444444,0.86531690
3.447222,0.86619718
3.450000,0.86883803
3.452778,0.86971831
3.455556,0.87411972
3.458333,0.88292254
3.461111,0.89348592
3.463889,0.90052817
3.466667,0.89348592
3.469444,0.87500000
3.472222,0.85475352
3.475000,0.83538732
3.477778,0.82922535
3.480556,0.83538732
3.483333,0.84507042
3.486111,0.85739437
3.488889,0.86531690
3.491667,0.87147887
3.494444,0.87147887
3.497222,0.87235915
3.500000,0.87147887
3.502778,0.87323944
3.505556,0.87235915
3.508333,0.87676056
3.511111,0.88028169
3.513889,0.88556338
3.516667,0.88468310
3.519444,0.88468310
3.522222,0.87940141
3.525000,0.87147887
3.527778,0.86003521
3.530556,0.84683099
3.533333,0.84154930
3.536111,0.84154930
3.538889,0.84771127
3.541667,0.85651408
3.544444,0.86531690
3.547222,0.87235915
3.550000,0.87588028
3.552778,0.87676056
3.555556,0.87500000
3.558333,0.87235915
3.561111,0.87235915
3.563889,0.87323944
3.566667,0.87235915
3.569444,0.87235915
3.572222,0.87147887
3.575000,0.86707746
3.577778,0.86443662
3.580556,0.86267606
3.583333,0.86267606
3.586111,0.86443662
3.588889,0.86619718
3.591667,0.86707746
3.594444,0.86971831
3.597222,0.87059859
3.600000,0.87147887
3.602778,0.87323944
3.605556,0.87323944
3.608333,0.87147887
3.611111,0.87059859
3.613889,0.86795775
3.616667,0.86619718
3.619444,0.86443662
3.622222,0.86355634
3.625000,0.86355634
3.627778,0.86531690
3.630556,0.86619718
3.633333,0.86531690
3.636111,0.86531690
3.638889,0.86443662
3.641667,0.86355634
3.644444,0.86443662
3.647222,0.86619718
3.650000,0.86795775
3.652778,0.86971831
3.655556,0.87323944
3.658333,0.87500000
3.661111,0.87764085
3.663889,0.87676056
3.666667,0.87235915
3.669444,0.86619718
3.672222,0.85739437
3.675000,0.85475352
3.677778,0.85211268
3.680556,0.85475352
3.683333,0.85827465
3.686111,0.86091549
3.688889,0.86619718
3.691667,0.86707746
3.694444,0.86707746
3.697222,0.86707746
3.700000,0.86707746
3.702778,0.86883803
3.705556,0.87059859
3.708333,0.87147887
3.711111,0.87411972
3.713889,0.87411972
3.716667,0.87411972
3.719444,0.86883803
3.722222,0.86619718
3.725000,0.86619718
3.727778,0.86707746
3.730556,0.87147887
3.733333,0.87588028
3.736111,0.88116197
3.738889,0.88028169
3.741667,0.87852113
3.744444,0.87588028
3.747222,0.87323944
3.750000,0.86971831
3.752778,0.86179577
3.755556,0.85387324
3.758333,0.84947183
3.761111,0.85035211
3.763889,0.85123239
3.766667,0.86091549
3.769444,0.86707746
3.772222,0.87059859
3.775000,0.87147887
3.777778,0.87059859
3.780556,0.86619718
3.783333,0.86355634
3.786111,0.85827465
3.788889,0.85915493
3.791667,0.86443662
3.794444,0.86795775
3.797222,0.87411972
3.800000,0.87852113
3.802778,0.88028169
3.805556,0.87764085
3.808333,0.87323944
3.811111,0.86707746
3.813889,0.86355634
3.816667,0.85915493
3.819444,0.85915493
3.822222,0.86179577
3.825000,0.86531690
3.827778,0.86795775
3.830556,0.86619718
3.833333,0.86443662
3.836111,0.86619718
3.838889,0.86443662
3.841667,0.86267606
3.844444,0.86091549
3.847222,0.86003521
3.850000,0.86003521
3.852778,0.85827465
3.855556,0.86443662
3.858333,0.86795775
3.861111,0.87235915
3.863889,0.87500000
3.866667,0.87500000
3.869444,0.87323944
3.872222,0.87147887
3.875000,0.87059859
3.877778,0.86795775
3.880556,0.86355634
3.883333,0.85827465
3.886111,0.85651408
3.888889,0.85563380
3.891667,0.85651408
3.894444,0.85915493
3.897222,0.86355634
3.900000,0.86707746
3.902778,0.86883803
3.905556,0.87235915
3.908333,0.87059859
3.911111,0.86531690
3.913889,0.85563380
3.916667,0.85123239
3.919444,0.84859155
3.922222,0.84683099
3.925000,0.84771127
3.927778,0.85475352
3.930556,0.86003521
3.933333,0.86707746
3.936111,0.86971831
3.938889,0.86971831
3.941667,0.86443662
3.944444,0.85915493
3.947222,0.85475352
3.950000,0.85211268
3.952778,0.85475352
3.955556,0.85651408
3.958333,0.86179577
3.961111,0.86355634
3.963889,0.86707746
3.966667,0.86795775
3.969444,0.87059859
3.972222,0.86707746
3.975000,0.86443662
3.977778,0.86355634
3.980556,0.86003521
3.983333,0.86091549
3.986111,0.86003521
3.988889,0.85915493
3.991667,0.85739437
3.994444,0.85563380
3.997222,0.85651408
4.000000,0.85651408
4.002778,0.85827465
4.005556,0.85827465
4.008333,0.85739437
4.011111,0.85915493
4.013889,0.86179577
4.016667,0.86355634
4.019444,0.86355634
4.022222,0.86267606
4.025000,0.86179577
4.027778,0.86003521
4.030556,0.85915493
4.033333,0.86003521
4.036111,0.86267606
4.038889,0.86443662
4.041667,0.86267606
4.044444,0.86443662
4.047222,0.86179577
4.050000,0.86179577
4.052778,0.85651408
4.055556,0.85563380
4.058333,0.85739437
4.061111,0.85915493
4.063889,0.86619718
4.066667,0.87059859
4.069444,0.87323944
4.072222,0.86883803
4.075000,0.86267606
4.077778,0.86003521
4.080556,0.85651408
4.083333,0.85123239
4.086111,0.84771127
4.088889,0.84947183
4.091667,0.85387324
4.094444,0.85739437
4.097222,0.86267606
4.100000,0.86443662
4.102778,0.86619718
4.105556,0.86267606
4.108333,0.86179577
4.111111,0.86091549
4.113889,0.86267606
4.116667,0.86267606
4.119444,0.86091549
4.122222,0.85827465
4.125000,0.85915493
4.127778,0.86091549
4.130556,0.86179577
4.133333,0.86443662
4.136111,0.86355634
4.138889,0.85915493
4.141667,0.85651408
4.144444,0.85563380
4.147222,0.85563380
4.150000,0.85739437
4.152778,0.85827465
4.155556,0.85739437
4.158333,0.85475352
4.161111,0.85123239
4.163889,0.85387324
4.166667,0.85739437
4.169444,0.86267606
4.172222,0.86707746
4.175000,0.86883803
4.177778,0.86971831
4.180556,0.86531690
4.183333,0.86443662
4.186111,0.86179577
4.188889,0.85915493
4.191667,0.85739437
4.194444,0.85563380
4.197222,0.85739437
4.200000,0.86091549
4.202778,0.86531690
4.205556,0.86795775
4.208333,0.86619718
4.211111,0.86619718
4.213889,0.86443662
4.216667,0.85915493
4.219444,0.85651408
4.222222,0.85563380
4.225000,0.85827465
4.227778,0.86179577
4.230556,0.86267606
4.233333,0.86443662
4.236111,0.86531690
4.238889,0.86531690
4.241667,0.86443662
4.244444,0.86355634
4.247222,0.85827465
4.250000,0.85475352
4.252778,0.85211268
4.255556,0.85475352
4.258333,0.85827465
4.261111,0.86179577
4.263889,0.86531690
4.266667,0.86355634
4.269444,0.86091549
4.272222,0.85915493
4.275000,0.86003521
4.277778,0.86619718
4.280556,0.86883803
4.283333,0.87147887
4.286111,0.87059859
4.288889,0.86531690
4.291667,0.86003521
4.294444,0.85387324
4.297222,0.85387324
4.300000,0.85563380
4.302778,0.85651408
4.305556,0.85827465
4.308333,0.86179577
4.311111,0.86619718
4.313889,0.86795775
4.316667,0.86971831
4.319444,0.86795775
4.322222,0.86619718
4.325000,0.86531690
4.327778,0.86531690
4.330556,0.86531690
4.333333,0.86707746
4.336111,0.86795775
4.338889,0.86795775
4.341667,0.86531690
4.344444,0.86443662
4.347222,0.86179577
4.350000,0.85915493
4.352778,0.85827465
4.355556,0.85827465
4.358333,0.86179577
4.361111,0.86267606
4.363889,0.86795775
4.366667,0.87059859
4.369444,0.87147887
4.372222,0.87147887
4.375000,0.86795775
4.377778,0.86531690
4.380556,0.86003521
4.383333,0.86003521
4.386111,0.86003521
4.388889,0.86355634
4.391667,0.86707746
4.394444,0.86971831
4.397222,0.87411972
4.400000,0.87764085
4.402778,0.87764085
4.405556,0.87852113
4.408333,0.87676056
4.411111,0.87235915
4.413889,0.87147887
4.416667,0.87147887
4.419444,0.87235915
4.422222,0.87588028
4.425000,0.87764085
4.427778,0.88292254
4.430556,0.88380282
4.433333,0.88380282
4.436111,0.87852113
4.438889,0.87323944
4.441667,0.86619718
4.444444,0.86179577
4.447222,0.85827465
4.450000,0.85739437
4.452778,0.85915493
4.455556,0.86267606
4.458333,0.86883803
4.461111,0.87059859
4.463889,0.87588028
4.466667,0.88028169
4.469444,0.88292254
4.472222,0.88204225
4.475000,0.87764085
4.477778,0.87059859
4.480556,0.86091549
4.483333,0.85211268
4.486111,0.84419014
4.488889,0.84066901
4.491667,0.84066901
4.494444,0.84419014
4.497222,0.84859155
4.500000,0.85387324
4.502778,0.85915493
4.505556,0.86179577
4.508333,0.86531690
4.511111,0.86531690
4.513889,0.86619718
4.516667,0.86531690
4.519444,0.86267606
4.522222,0.85915493
4.525000,0.85475352
4.527778,0.85123239
4.530556,0.85123239
4.533333,0.85123239
4.536111,0.85211268
4.538889,0.85739437
4.541667,0.86003521
4.544444,0.86003521
4.547222,0.86267606
4.550000,0.86531690
4.552778,0.87323944
4.555556,0.87676056
4.558333,0.87852113
4.561111,0.87147887
4.563889,0.86179577
4.566667,0.85211268
4.569444,0.84507042
4.572222,0.84507042
4.575000,0.84507042
4.577778,0.85299296
4.580556,0.85915493
4.583333,0.86619718
4.586111,0.87323944
4.588889,0.87588028
4.591667,0.88468310
4.594444,0.89788732
4.597222,0.91549296
4.600000,0.93838028
4.602778,0.96126761
4.605556,0.97887324
4.608333,0.99383803
4.611111,0.99911972
4.613889,0.99031690
4.616667,0.96390845
4.619444,0.91813380
4.622222,0.86795775
4.625000,0.82746479
4.627778,0.80017606
4.630556,0.79137324
4.633333,0.79225352
4.636111,0.79841549
4.638889,0.80633803
4.641667,0.81250000
4.644444,0.81602113
4.647222,0.81778169
4.650000,0.81250000
4.652778,0.80985915
4.655556,0.80545775
4.658333,0.80633803
4.661111,0.80897887
4.663889,0.81338028
4.666667,0.82042254
4.669444,0.82746479
4.672222,0.83186620
4.675000,0.83362676
4.677778,0.83714789
4.680556,0.83538732
4.683333,0.83186620
4.686111,0.82394366
4.688889,0.81690141
4.691667,0.81250000
4.694444,0.81161972
4.697222,0.81602113
4.700000,0.82306338
4.702778,0.83186620
4.705556,0.84154930
4.708333,0.84859155
4.711111,0.85739437
4.713889,0.86355634
4.716667,0.86707746
4.719444,0.86531690
4.722222,0.86355634
4.725000,0.85739437
4.727778,0.85211268
4.730556,0.84947183
4.733333,0.85035211
4.736111,0.85475352
4.738889,0.86091549
4.741667,0.86707746
4.744444,0.86883803
4.747222,0.86883803
4.750000,0.86443662
4.752778,0.86003521
4.755556,0.85563380
4.758333,0.85211268
4.761111,0.84859155
4.763889,0.84507042
4.766667,0.84595070
4.769444,0.85123239
4.772222,0.85563380
4.775000,0.85915493
4.777778,0.86179577
4.780556,0.86531690
4.783333,0.86795775
4.786111,0.86883803
4.788889,0.86707746
4.791667,0.86355634
4.794444,0.85827465
4.797222,0.85827465
4.800000,0.85651408
4.802778,0.86003521
4.805556,0.86707746
4.808333,0.87059859
4.811111,0.87500000
4.813889,0.87940141
4.816667,0.87764085
4.819444,0.87852113
4.822222,0.87588028
4.825000,0.87059859
4.827778,0.86795775
4.830556,0.86883803
4.833333,0.86883803
4.836111,0.87059859
4.838889,0.87323944
4.841667,0.86795775
4.844444,0.86707746
4.847222,0.86971831
4.850000,0.87235915
4.852778,0.87852113
4.855556,0.88292254
4.858333,0.88468310
4.861111,0.88380282
4.863889,0.88380282
4.866667,0.88292254
4.869444,0.88556338
4.872222,0.88380282
4.875000,0.88292254
4.877778,0.88292254
4.880556,0.88380282
4.883333,0.88820423
4.886111,0.89260563
4.888889,0.89524648
4.891667,0.89876761
4.894444,0.90228873
4.897222,0.90580986
4.900000,0.90492958
4.902778,0.90669014
4.905556,0.90669014
4.908333,0.90316901
4.911111,0.90052817
4.913889,0.89788732
4.916667,0.89700704
4.919444,0.89612676
4.922222,0.89788732
4.925000,0.90140845
4.927778,0.90757042
4.930556,0.91373239
4.933333,0.91637324
4.936111,0.91461268
4.938889,0.90845070
4.941667,0.89788732
4.944444,0.88996479
4.947222,0.88644366
4.950000,0.88644366
4.952778,0.88644366
4.955556,0.88908451
4.958333,0.89436620
4.961111,0.89612676
4.963889,0.89612676
4.966667,0.89436620
4.969444,0.89348592
4.972222,0.89612676
4.975000,0.89612676
4.977778,0.89348592
4.980556,0.89084507
4.983333,0.88556338
4.986111,0.87588028
4.988889,0.87235915
4.991667,0.86795775
4.994444,0.86883803
4.997222,0.86971831
5.000000,0.87059859
5.002778,0.86971831
5.005556,0.86883803
5.008333,0.86795775
5.011111,0.86971831
5.013889,0.87235915
5.016667,0.87323944
5.019444,0.86971831
5.022222,0.86443662
5.025000,0.85651408
5.027778,0.85563380
5.030556,0.85475352
5.033333,0.85651408
5.036111,0.85915493
5.038889,0.85827465
5.041667,0.85387324
5.044444,0.85299296
5.047222,0.85299296
5.050000,0.85739437
5.052778,0.85827465
5.055556,0.85739437
5.058333,0.85827465
5.061111,0.85827465
5.063889,0.86091549
5.066667,0.86267606
5.069444,0.86707746
5.072222,0.87147887
5.075000,0.87323944
5.077778,0.87500000
5.080556,0.87235915
5.083333,0.87059859
5.086111,0.87059859
5.088889,0.87059859
5.091667,0.86619718
5.094444,0.86355634
5.097222,0.86355634
5.100000,0.86531690
5.102778,0.86619718
5.105556,0.86619718
5.108333,0.86883803
5.111111,0.87059859
5.113889,0.87059859
5.116667,0.87323944
5.119444,0.87323944
5.122222,0.87411972
5.125000,0.86883803
5.127778,0.86355634
5.130556,0.86179577
5.133333,0.86355634
5.136111,0.86971831
5.138889,0.87411972
5.141667,0.87676056
5.144444,0.87764085
5.147222,0.87764085
5.150000,0.87588028
5.152778,0.87323944
5.155556,0.86971831
5.158333,0.87059859
5.161111,0.86971831
5.163889,0.87147887
5.166667,0.87147887
5.169444,0.87235915
5.172222,0.87588028
5.175000,0.87588028
5.177778,0.87147887
5.180556,0.86443662
5.183333,0.86267606
5.186111,0.86355634
5.188889,0.86531690
5.191667,0.86795775
5.194444,0.87059859
5.197222,0.86883803
5.200000,0.86707746
5.202778,0.86443662
5.205556,0.86355634
5.208333,0.86619718
5.211111,0.86883803
5.213889,0.87147887
5.216667,0.87235915
5.219444,0.87147887
5.222222,0.86795775
5.225000,0.86355634
5.227778,0.86003521
5.230556,0.86091549
5.233333,0.86443662
5.236111,0.86883803
5.238889,0.87235915
5.241667,0.87059859
5.244444,0.86971831
5.247222,0.86883803
5.250000,0.86619718
5.252778,0.86619718
5.255556,0.86619718
5.258333,0.86795775
5.261111,0.86883803
5.263889,0.86971831
5.266667,0.87323944
5.269444,0.88116197
5.272222,0.89436620
5.275000,0.91197183
5.277778,0.93309859
5.280556,0.95686620
5.283333,0.97887324
5.286111,0.99471831
5.288889,1.00000000
5.291667,0.99207746
5.294444,0.95950704
5.297222,0.91285211
5.300000,0.86531690
5.302778,0.83010563
5.305556,0.80897887
5.308333,0.80105634
5.311111,0.80369718
5.313889,0.80721831
5.316667,0.81250000
5.319444,0.81690141
5.322222,0.82218310
5.325000,0.82306338
5.327778,0.82482394
5.330556,0.82130282
5.333333,0.81514085
5.336111,0.81426056
5.338889,0.81514085
5.341667,0.82130282
5.344444,0.82746479
5.347222,0.83274648
5.350000,0.83538732
5.352778,0.83538732
5.355556,0.83010563
5.358333,0.82746479
5.361111,0.82746479
5.363889,0.83010563
5.366667,0.83010563
5.369444,0.83274648
5.372222,0.83450704
5.375000,0.83978873
5.377778,0.84419014
5.380556,0.85211268
5.383333,0.86091549
5.386111,0.86971831
5.388889,0.87764085
5.391667,0.87588028
5.394444,0.87235915
5.397222,0.86883803
5.400000,0.86619718
5.402778,0.86443662
5.405556,0.86707746
5.408333,0.86531690
5.411111,0.86531690
5.413889,0.86443662
5.416667,0.86267606
5.419444,0.85827465
5.422222,0.86003521
5.425000,0.86355634
5.427778,0.86795775
5.430556,0.86971831
5.433333,0.87059859
5.436111,0.87323944
5.438889,0.87059859
5.441667,0.86795775
5.444444,0.86619718
5.447222,0.86531690
5.450000,0.86531690
5.452778,0.86531690
5.455556,0.86619718
5.458333,0.86883803
5.461111,0.87323944
5.463889,0.87764085
5.466667,0.88028169
5.469444,0.88204225
5.472222,0.87676056
5.475000,0.87676056
5.477778,0.87411972
5.480556,0.87323944
5.483333,0.87059859
5.486111,0.87059859
5.488889,0.86883803
5.491667,0.86619718
5.494444,0.86883803
5.497222,0.87500000
5.500000,0.87940141
5.502778,0.88556338
5.505556,0.88644366
5.508333,0.88732394
5.511111,0.88468310
5.513889,0.88028169
5.516667,0.87940141
5.519444,0.88028169
5.522222,0.88380282
5.525000,0.88644366
5.527778,0.89260563
5.530556,0.89876761
5.533333,0.90492958
5.536111,0.91021127
5.538889,0.91285211
5.541667,0.90933099
5.544444,0.90404930
5.547222,0.89788732
5.550000,0.89260563
5.552778,0.89348592
5.555556,0.89436620
5.558333,0.90140845
5.561111,0.90404930
5.563889,0.90933099
5.566667,0.90933099
5.569444,0.91109155
5.572222,0.91109155
5.575000,0.91197183
5.577778,0.91109155
5.580556,0.90933099
5.583333,0.90845070
5.586111,0.90933099
5.588889,0.91021127
5.591667,0.90933099
5.594444,0.90492958
5.597222,0.90052817
5.600000,0.89788732
5.602778,0.89524648
5.605556,0.89348592
5.608333,0.88908451
5.611111,0.88996479
5.613889,0.88644366
5.616667,0.88292254
5.619444,0.87764085
5.622222,0.87500000
5.625000,0.87500000
5.627778,0.87588028
5.630556,0.87764085
5.633333,0.87764085
5.636111,0.87764085
5.638889,0.87852113
5.641667,0.87588028
5.644444,0.87059859
5.647222,0.86355634
5.650000,0.85651408
5.652778,0.85387324
5.655556,0.84859155
5.658333,0.84947183
5.661111,0.85211268
5.663889,0.85651408
5.666667,0.85915493
5.669444,0.86443662
5.672222,0.86883803
5.675000,0.87059859
5.677778,0.87676056
5.680556,0.88028169
5.683333,0.88644366
5.686111,0.88292254
5.688889,0.87500000
5.691667,0.85563380
5.694444,0.83714789
5.697222,0.82570423
5.700000,0.82746479
5.702778,0.83538732
5.705556,0.84771127
5.708333,0.86091549
5.711111,0.86795775
5.713889,0.87059859
5.716667,0.86971831
5.719444,0.86619718
5.722222,0.86003521
5.725000,0.85211268
5.727778,0.85299296
5.730556,0.85211268
5.733333,0.85563380
5.736111,0.85915493
5.738889,0.86003521
5.741667,0.85915493
5.744444,0.85739437
5.747222,0.85475352
5.750000,0.85211268
5.752778,0.85211268
5.755556,0.85475352
5.758333,0.85827465
5.761111,0.85915493
5.763889,0.85563380
5.766667,0.85387324
5.769444,0.85299296
5.772222,0.85475352
5.775000,0.86179577
5.777778,0.86707746
5.780556,0.87059859
5.783333,0.86707746
5.786111,0.86179577
5.788889,0.85475352
5.791667,0.85123239
5.794444,0.85123239
5.797222,0.85299296
5.800000,0.86003521
5.802778,0.86267606
5.805556,0.86443662
5.808333,0.86355634
5.811111,0.86443662
5.813889,0.86707746
5.816667,0.86795775
5.819444,0.86883803
5.822222,0.87147887
5.825000,0.87059859
5.827778,0.86707746
5.830556,0.86443662
5.833333,0.86267606
5.836111,0.85563380
5.838889,0.85123239
5.841667,0.85123239
5.844444,0.85387324
5.847222,0.85827465
5.850000,0.86179577
5.852778,0.86179577
5.855556,0.86091549
5.858333,0.86091549
5.861111,0.86355634
5.863889,0.86267606
5.866667,0.86355634
5.869444,0.86091549
5.872222,0.85827465
5.875000,0.85651408
5.877778,0.85651408
5.880556,0.85651408
5.883333,0.85915493
5.886111,0.86091549
5.888889,0.86003521
5.891667,0.86091549
5.894444,0.86267606
5.897222,0.86091549
5.900000,0.85827465
5.902778,0.85563380
5.905556,0.85387324
5.908333,0.85651408
5.911111,0.85651408
5.913889,0.86003521
5.916667,0.86267606
5.919444,0.86443662
5.922222,0.86443662
5.925000,0.86619718
5.927778,0.86267606
5.930556,0.86267606
5.933333,0.86179577
5.936111,0.86179577
5.938889,0.85739437
5.941667,0.85739437
5.944444,0.85475352
5.947222,0.85475352
5.950000,0.85651408
5.952778,0.86179577
5.955556,0.86531690
5.958333,0.86707746
5.961111,0.86795775
5.963889,0.86795775
5.966667,0.86795775
5.969444,0.86971831
5.972222,0.87235915
5.975000,0.88028169
5.977778,0.88732394
5.980556,0.89788732
5.983333,0.91021127
5.986111,0.92957746
5.988889,0.94542254
5.991667,0.96390845
5.994444,0.96830986
5.997222,0.96038732
6.000000,0.93573944
6.002778,0.89436620
6.005556,0.85035211
6.008333,0.81602113
6.011111,0.79753521
6.013889,0.79313380
6.016667,0.79753521
6.019444,0.80633803
6.022222,0.81338028
6.025000,0.81954225
6.027778,0.82482394
6.030556,0.82834507
6.033333,0.83098592
6.036111,0.83274648
6.038889,0.83186620
6.041667,0.82834507
6.044444,0.82394366
6.047222,0.81690141
6.050000,0.81338028
6.052778,0.81250000
6.055556,0.81073944
6.058333,0.81073944
6.061111,0.81161972
6.063889,0.81514085
6.066667,0.81954225
6.069444,0.82834507
6.072222,0.83274648
6.075000,0.83626761
6.077778,0.83978873
6.080556,0.84154930
6.083333,0.84595070
6.086111,0.84595070
6.088889,0.84683099
6.091667,0.85123239
6.094444,0.85211268
6.097222,0.85563380
6.100000,0.85475352
6.102778,0.85475352
6.105556,0.85563380
6.108333,0.85739437
6.111111,0.85915493
6.113889,0.86003521
6.116667,0.85915493
6.119444,0.86179577
6.122222,0.86443662
6.125000,0.86883803
6.127778,0.87323944
6.130556,0.87411972
6.133333,0.87323944
6.136111,0.87235915
6.138889,0.86883803
6.141667,0.86003521
6.144444,0.85123239
6.147222,0.84242958
6.150000,0.84330986
6.152778,0.84683099
6.155556,0.85123239
6.158333,0.85915493
6.161111,0.86443662
6.163889,0.86883803
6.166667,0.87147887
6.169444,0.87059859
6.172222,0.87059859
6.175000,0.86971831
6.177778,0.86883803
6.180556,0.86531690
6.183333,0.86267606
6.186111,0.86003521
6.188889,0.85739437
6.191667,0.86091549
6.194444,0.86179577
6.197222,0.86619718
6.200000,0.86883803
6.202778,0.87059859
6.205556,0.87500000
6.208333,0.88116197
6.211111,0.88556338
6.213889,0.89172535
6.216667,0.88996479
6.219444,0.87940141
6.222222,0.86883803
6.225000,0.86091549
6.227778,0.85739437
6.230556,0.86003521
6.233333,0.86619718
6.236111,0.87588028
6.238889,0.88292254
6.241667,0.88996479
6.244444,0.89348592
6.247222,0.89172535
6.250000,0.89084507
6.252778,0.89612676
6.255556,0.89964789
6.258333,0.90492958
6.261111,0.90580986
6.263889,0.90757042
6.266667,0.90492958
6.269444,0.89788732
6.272222,0.89260563
6.275000,0.88820423
6.277778,0.88732394
6.280556,0.88908451
6.283333,0.89436620
6.286111,0.89788732
6.288889,0.90404930
6.291667,0.91021127
6.294444,0.91461268
6.297222,0.91461268
6.300000,0.90845070
6.302778,0.90580986
6.305556,0.90316901
6.308333,0.89964789
6.311111,0.89876761
6.313889,0.89524648
6.316667,0.88996479
6.319444,0.88292254
6.322222,0.87764085
6.325000,0.87852113
6.327778,0.87852113
6.330556,0.87940141
6.333333,0.88292254
6.336111,0.88468310
6.338889,0.88380282
6.341667,0.88028169
6.344444,0.88028169
6.347222,0.87940141
6.350000,0.88116197
6.352778,0.88380282
6.355556,0.88556338
6.358333,0.88468310
6.361111,0.87764085
6.363889,0.86531690
6.366667,0.85211268
6.369444,0.84419014
6.372222,0.84330986
6.375000,0.84683099
6.377778,0.85211268
6.380556,0.85739437
6.383333,0.86179577
6.386111,0.86355634
6.388889,0.86355634
6.391667,0.86619718
6.394444,0.86355634
6.397222,0.86795775
6.400000,0.87323944
6.402778,0.88204225
6.405556,0.88468310
6.408333,0.87588028
6.411111,0.86355634
6.413889,0.84419014
6.416667,0.83186620
6.419444,0.83010563
6.422222,0.83538732
6.425000,0.84683099
6.427778,0.85651408
6.430556,0.86443662
6.433333,0.86795775
6.436111,0.86971831
6.438889,0.87235915
6.441667,0.86795775
6.444444,0.86531690
6.447222,0.86443662
6.450000,0.85739437
6.452778,0.85563380
6.455556,0.85211268
6.458333,0.85299296
6.461111,0.85475352
6.463889,0.85651408
6.466667,0.86179577
6.469444,0.86707746
6.472222,0.86795775
6.475000,0.86619718
6.477778,0.86267606
6.480556,0.86355634
6.483333,0.86267606
6.486111,0.86003521
6.488889,0.86091549
6.491667,0.86443662
6.494444,0.86619718
6.497222,0.86531690
6.500000,0.86355634
6.502778,0.86355634
6.505556,0.86267606
6.508333,0.86267606
6.511111,0.86443662
6.513889,0.86355634
6.516667,0.86267606
6.519444,0.85915493
6.522222,0.85739437
6.525000,0.85739437
6.527778,0.85739437
6.530556,0.85827465
6.533333,0.86003521
6.536111,0.86179577
6.538889,0.86443662
6.541667,0.86707746
6.544444,0.86707746
6.547222,0.86707746
6.550000,0.86443662
6.552778,0.86091549
6.555556,0.85827465
6.558333,0.85651408
6.561111,0.85651408
6.563889,0.85475352
6.566667,0.85739437
6.569444,0.85827465
6.572222,0.85739437
6.575000,0.85915493
6.577778,0.86091549
6.580556,0.86355634
6.583333,0.86355634
6.586111,0.86179577
6.588889,0.86003521
6.591667,0.85915493
6.594444,0.85739437
6.597222,0.86091549
6.600000,0.85827465
6.602778,0.86003521
6.605556,0.85739437
6.608333,0.85563380
6.611111,0.85475352
6.613889,0.85827465
6.616667,0.86003521
6.619444,0.85915493
6.622222,0.85739437
6.625000,0.85827465
6.627778,0.85475352
6.630556,0.85299296
6.633333,0.85651408
6.636111,0.86003521
6.638889,0.86267606
6.641667,0.86179577
6.644444,0.86091549
6.647222,0.85827465
6.650000,0.85739437
6.652778,0.85739437
6.655556,0.85475352
6.658333,0.85123239
6.661111,0.84859155
6.663889,0.85035211
6.666667,0.85211268
6.669444,0.85827465
6.672222,0.85915493
6.675000,0.85827465
6.677778,0.85915493
6.680556,0.85827465
6.683333,0.85915493
6.686111,0.85739437
6.688889,0.85563380
6.691667,0.85563380
6.694444,0.85563380
6.697222,0.85827465
6.700000,0.85827465
6.702778,0.85739437
6.705556,0.85915493
6.708333,0.85475352
6.711111,0.85563380
6.713889,0.85651408
6.716667,0.85739437
6.719444,0.86003521
6.722222,0.86179577
6.725000,0.86003521
6.727778,0.85739437
6.730556,0.85387324
6.733333,0.85299296
6.736111,0.85475352
6.738889,0.86091549
6.741667,0.86355634
6.744444,0.86531690
6.747222,0.86267606
6.750000,0.86003521
6.752778,0.85387324
6.755556,0.85387324
6.758333,0.85563380
6.761111,0.85651408
6.763889,0.85915493
6.766667,0.85827465
6.769444,0.85739437
6.772222,0.85563380
6.775000,0.85739437
6.777778,0.85651408
6.780556,0.85739437
6.783333,0.86003521
6.786111,0.86091549
6.788889,0.85827465
6.791667,0.85915493
6.794444,0.85651408
6.797222,0.85739437
6.800000,0.85827465
6.802778,0.85915493
6.805556,0.86179577
6.808333,0.86179577
6.811111,0.86619718
6.813889,0.86443662
6.816667,0.86531690
6.819444,0.85827465
6.822222,0.85387324
6.825000,0.84947183
6.827778,0.84859155
6.830556,0.85035211
6.833333,0.85651408
6.836111,0.86003521
6.838889,0.86267606
6.841667,0.86179577
6.844444,0.86267606
6.847222,0.85915493
6.850000,0.85915493
6.852778,0.86179577
6.855556,0.86003521
6.858333,0.85915493
6.861111,0.85651408
6.863889,0.85915493
6.866667,0.85651408
6.869444,0.85739437
6.872222,0.85827465
6.875000,0.85651408
6.877778,0.85123239
6.880556,0.84859155
6.883333,0.84859155
6.886111,0.85123239
6.888889,0.85299296
6.891667,0.85651408
6.894444,0.85915493
6.897222,0.86091549
6.900000,0.86091549
6.902778,0.85915493
6.905556,0.85739437
6.908333,0.85563380
6.911111,0.85739437
6.913889,0.85739437
6.916667,0.85827465
6.919444,0.85739437
6.922222,0.85739437
6.925000,0.85915493
6.927778,0.85915493
6.930556,0.86003521
6.933333,0.85827465
6.936111,0.85739437
6.938889,0.85739437
6.941667,0.85651408
6.944444,0.85739437
6.947222,0.86091549
6.950000,0.86355634
6.952778,0.86443662
6.955556,0.86091549
6.958333,0.85563380
6.961111,0.85299296
6.963889,0.84947183
6.966667,0.85123239
6.969444,0.85475352
6.972222,0.85651408
6.975000,0.85915493
6.977778,0.86091549
6.980556,0.85915493
6.983333,0.85739437
6.986111,0.85387324
6.988889,0.85123239
6.991667,0.85123239
6.994444,0.85211268
6.997222,0.85563380
7.000000,0.85915493
7.002778,0.86619718
7.005556,0.86795775
7.008333,0.86619718
7.011111,0.86267606
7.013889,0.85827465
7.016667,0.85387324
7.019444,0.85387324
7.022222,0.85475352
7.025000,0.85651408
7.027778,0.85651408
7.030556,0.85123239
7.033333,0.85211268
7.036111,0.85387324
7.038889,0.85739437
7.041667,0.86179577
7.044444,0.86443662
7.047222,0.86795775
7.050000,0.86795775
7.052778,0.86355634
7.055556,0.85563380
7.058333,0.85211268
7.061111,0.85035211
7.063889,0.84947183
7.066667,0.84947183
7.069444,0.85387324
7.072222,0.85651408
7.075000,0.85475352
7.077778,0.85475352
7.080556,0.85387324
7.083333,0.84947183
7.086111,0.85035211
7.088889,0.85123239
7.091667,0.85299296
7.094444,0.85651408
7.097222,0.86355634
7.100000,0.86795775
7.102778,0.87323944
7.105556,0.87411972
7.108333,0.87059859
7.111111,0.86883803
7.113889,0.86267606
7.116667,0.85739437
7.119444,0.85123239
7.122222,0.84771127
7.125000,0.84683099
7.127778,0.84507042
7.130556,0.84771127
7.133333,0.85299296
7.136111,0.85563380
7.138889,0.85915493
7.141667,0.85915493
7.144444,0.86091549
7.147222,0.85827465
7.150000,0.86003521
7.152778,0.86267606
7.155556,0.86531690
7.158333,0.86971831
7.161111,0.86971831
7.163889,0.87235915
7.166667,0.86531690
7.169444,0.86003521
7.172222,0.85563380
7.175000,0.85211268
7.177778,0.85123239
7.180556,0.84947183
7.183333,0.85387324
7.186111,0.85387324
7.188889,0.85651408
7.191667,0.85915493
7.194444,0.86003521
7.197222,0.86531690
7.200000,0.86531690
7.202778,0.86531690
7.205556,0.86267606
7.208333,0.86179577
7.211111,0.85915493
7.213889,0.85739437
7.216667,0.85915493
7.219444,0.85827465
7.222222,0.86091549
7.225000,0.86179577
7.227778,0.86267606
7.230556,0.86091549
7.233333,0.85827465
7.236111,0.85651408
7.238889,0.85563380
7.241667,0.85827465
7.244444,0.86003521
7.247222,0.86179577
7.250000,0.86179577
7.252778,0.86179577
7.255556,0.86443662
7.258333,0.86179577
7.261111,0.86003521
7.263889,0.86003521
7.266667,0.86003521
7.269444,0.85915493
7.272222,0.85739437
7.275000,0.85915493
7.277778,0.85915493
7.280556,0.86267606
7.283333,0.86267606
7.286111,0.85563380
7.288889,0.85299296
7.291667,0.84947183
7.294444,0.84771127
7.297222,0.84683099
7.300000,0.85299296
7.302778,0.85827465
7.305556,0.86091549
7.308333,0.86619718
7.311111,0.86883803
7.313889,0.86795775
7.316667,0.86883803
7.319444,0.86883803
7.322222,0.86443662
7.325000,0.86619718
7.327778,0.86795775
7.330556,0.86707746
7.333333,0.86619718
7.336111,0.86355634
7.338889,0.85563380
7.341667,0.85123239
7.344444,0.85035211
7.347222,0.85035211
7.350000,0.85387324
7.352778,0.85651408
7.355556,0.85915493
7.358333,0.86003521
7.361111,0.86003521
7.363889,0.85827465
7.366667,0.85915493
7.369444,0.86179577
7.372222,0.86443662
7.375000,0.86267606
7.377778,0.86355634
7.380556,0.86355634
7.383333,0.86267606
7.386111,0.86267606
7.388889,0.86091549
7.391667,0.86003521
7.394444,0.86091549
7.397222,0.86355634
7.400000,0.86267606
7.402778,0.86619718
7.405556,0.86355634
7.408333,0.86267606
7.411111,0.86179577
7.413889,0.85827465
7.416667,0.86003521
7.419444,0.86355634
7.422222,0.86795775
7.425000,0.86883803
7.427778,0.86795775
7.430556,0.86267606
7.433333,0.86003521
7.436111,0.85651408
7.438889,0.85827465
7.441667,0.86003521
7.444444,0.85651408
7.447222,0.85651408
7.450000,0.85651408
7.452778,0.85739437
7.455556,0.86091549
7.458333,0.86267606
7.461111,0.86355634
7.463889,0.86531690
7.466667,0.86267606
7.469444,0.85915493
7.472222,0.85739437
7.475000,0.85475352
7.477778,0.85563380
7.480556,0.86179577
7.483333,0.86355634
7.486111,0.86443662
7.488889,0.86619718
7.491667,0.86443662
7.494444,0.86091549
7.497222,0.85915493
7.500000,0.85739437
7.502778,0.85651408
7.505556,0.86003521
7.508333,0.86179577
7.511111,0.86531690
7.513889,0.86531690
7.516667,0.86179577
7.519444,0.86267606
7.522222,0.86179577
7.525000,0.86355634
7.527778,0.86179577
7.530556,0.86267606
7.533333,0.86179577
7.536111,0.86091549
7.538889,0.86179577
7.541667,0.85827465
7.544444,0.85475352
7.547222,0.85387324
7.550000,0.85739437
7.552778,0.86003521
7.555556,0.86091549
7.558333,0.86179577
7.561111,0.86179577
7.563889,0.86003521
7.566667,0.86003521
7.569444,0.85827465
7.572222,0.85827465
7.575000,0.85739437
7.577778,0.86179577
7.580556,0.86355634
7.583333,0.86619718
7.586111,0.86619718
7.588889,0.86795775
7.591667,0.86267606
7.594444,0.85827465
7.597222,0.85651408
7.600000,0.85739437
7.602778,0.86091549
7.605556,0.86619718
7.608333,0.87059859
7.611111,0.87323944
7.613889,0.87147887
7.616667,0.86531690
7.619444,0.85915493
7.622222,0.85475352
7.625000,0.85387324
7.627778,0.85475352
7.630556,0.85915493
7.633333,0.86267606
7.636111,0.86619718
7.638889,0.86971831
7.641667,0.87323944
7.644444,0.87588028
7.647222,0.87411972
7.650000,0.88028169
7.652778,0.88292254
7.655556,0.88028169
7.658333,0.87588028
7.661111,0.86883803
7.663889,0.86531690
7.666667,0.86619718
7.669444,0.86619718
7.672222,0.86971831
7.675000,0.87235915
7.677778,0.87059859
7.680556,0.87147887
7.683333,0.87059859
7.686111,0.87147887
7.688889,0.86971831
7.691667,0.86707746
7.694444,0.86707746
7.697222,0.86795775
7.700000,0.86971831
7.702778,0.86971831
7.705556,0.86971831
7.708333,0.87059859
7.711111,0.86795775
7.713889,0.86619718
7.716667,0.86619718
7.719444,0.86531690
7.722222,0.86443662
7.725000,0.86443662
7.727778,0.86795775
7.730556,0.86619718
7.733333,0.86443662
7.736111,0.86531690
7.738889,0.86267606
7.741667,0.85915493
7.744444,0.85827465
7.747222,0.85563380
7.750000,0.85475352
7.752778,0.85211268
7.755556,0.85035211
7.758333,0.85387324
7.761111,0.85739437
7.763889,0.85915493
7.766667,0.86091549
7.769444,0.86091549
7.772222,0.86003521
7.775000,0.85827465
7.777778,0.85563380
7.780556,0.85563380
7.783333,0.85563380
7.786111,0.85827465
7.788889,0.85827465
7.791667,0.86355634
7.794444,0.86443662
7.797222,0.86443662
7.800000,0.86355634
7.802778,0.86091549
7.805556,0.86003521
7.808333,0.86091549
7.811111,0.86267606
7.813889,0.86443662
7.816667,0.86619718
7.819444,0.86267606
7.822222,0.86003521
7.825000,0.85651408
7.827778,0.85739437
7.830556,0.85915493
7.833333,0.86267606
7.836111,0.86707746
7.838889,0.87147887
7.841667,0.87323944
7.844444,0.88116197
7.847222,0.88820423
7.850000,0.89876761
7.852778,0.91461268
7.855556,0.93045775
7.858333,0.94718310
7.861111,0.95246479
7.863889,0.94366197
7.866667,0.91725352
7.869444,0.88116197
7.872222,0.84683099
7.875000,0.82130282
7.877778,0.80897887
7.880556,0.80545775
7.883333,0.80721831
7.886111,0.80985915
7.888889,0.81602113
7.891667,0.82042254
7.894444,0.82394366
7.897222,0.82570423
7.900000,0.82306338
7.902778,0.82042254
7.905556,0.81778169
7.908333,0.81866197
7.911111,0.82130282
7.913889,0.82482394
7.916667,0.82570423
7.919444,0.82570423
7.922222,0.82218310
7.925000,0.82394366
7.927778,0.82394366
7.930556,0.82482394
7.933333,0.82658451
7.936111,0.82922535
7.938889,0.82834507
7.941667,0.82658451
7.944444,0.82834507
7.947222,0.83186620
7.950000,0.83450704
7.952778,0.83802817
7.955556,0.84330986
7.958333,0.84771127
7.961111,0.85211268
7.963889,0.85827465
7.966667,0.86267606
7.969444,0.86619718
7.972222,0.86531690
7.975000,0.86179577
7.977778,0.85915493
7.980556,0.85651408
7.983333,0.85827465
7.986111,0.85915493
7.988889,0.86179577
7.991667,0.86355634
7.994444,0.86179577
7.997222,0.85915493
8.000000,0.85827465
8.002778,0.85563380
8.005556,0.85211268
8.008333,0.85299296
8.011111,0.85299296
8.013889,0.85563380
8.016667,0.85739437
8.019444,0.86003521
8.022222,0.86179577
8.025000,0.86531690
8.027778,0.86619718
8.030556,0.86707746
8.033333,0.86707746
8.036111,0.86707746
8.038889,0.86707746
8.041667,0.86531690
8.044444,0.86267606
8.047222,0.86179577
8.050000,0.86355634
8.052778,0.86531690
8.055556,0.86971831
8.058333,0.87235915
8.061111,0.87059859
8.063889,0.86619718
8.066667,0.86003521
8.069444,0.85475352
8.072222,0.85739437
8.075000,0.86091549
8.077778,0.86619718
8.080556,0.87059859
8.083333,0.87411972
8.086111,0.87500000
8.088889,0.87411972
8.091667,0.87764085
8.094444,0.88028169
8.097222,0.88380282
8.100000,0.88380282
8.102778,0.88292254
8.105556,0.87940141
8.108333,0.87500000
8.111111,0.87764085
8.113889,0.88028169
8.116667,0.88644366
8.119444,0.88908451
8.122222,0.89172535
8.125000,0.89436620
8.127778,0.89260563
8.130556,0.89436620
8.133333,0.89348592
8.136111,0.89524648
8.138889,0.89700704
8.141667,0.89700704
8.144444,0.89612676
8.147222,0.89524648
8.150000,0.89348592
8.152778,0.89348592
8.155556,0.88996479
8.158333,0.89084507
8.161111,0.89084507
8.163889,0.88996479
8.166667,0.89436620
8.169444,0.89964789
8.172222,0.90404930
8.175000,0.90669014
8.177778,0.90845070
8.180556,0.90316901
8.183333,0.89876761
8.186111,0.89260563
8.188889,0.88732394
8.191667,0.88644366
8.194444,0.88556338
8.197222,0.88908451
8.200000,0.89172535
8.202778,0.89260563
8.205556,0.89260563
8.208333,0.88732394
8.211111,0.88732394
8.213889,0.88732394
8.216667,0.89172535
8.219444,0.89084507
8.222222,0.88732394
8.225000,0.88204225
8.227778,0.87676056
8.230556,0.87588028
8.233333,0.87764085
8.236111,0.87940141
8.238889,0.88028169
8.241667,0.87764085
8.244444,0.87676056
8.247222,0.86883803
8.250000,0.86355634
8.252778,0.86003521
8.255556,0.85827465
8.258333,0.85827465
8.261111,0.86003521
8.263889,0.85915493
8.266667,0.85739437
8.269444,0.85563380
8.272222,0.85827465
8.275000,0.86091549
8.277778,0.86619718
8.280556,0.86619718
8.283333,0.86091549
8.286111,0.85475352
8.288889,0.85123239
8.291667,0.85035211
8.294444,0.85299296
8.297222,0.85651408
8.300000,0.86267606
8.302778,0.86795775
8.305556,0.87147887
8.308333,0.87323944
8.311111,0.87588028
8.313889,0.87500000
8.316667,0.87323944
8.319444,0.87235915
8.322222,0.87059859
8.325000,0.87411972
8.327778,0.87411972
8.330556,0.87588028
8.333333,0.87500000
8.336111,0.87588028
8.338889,0.87500000
8.341667,0.87500000
8.344444,0.87411972
8.347222,0.87147887
8.350000,0.87147887
8.352778,0.86795775
8.355556,0.86443662
8.358333,0.86267606
8.361111,0.86091549
8.363889,0.86619718
8.366667,0.86883803
8.369444,0.87323944
8.372222,0.87323944
8.375000,0.87059859
8.377778,0.86707746
8.380556,0.86707746
8.383333,0.86883803
8.386111,0.86795775
8.388889,0.87059859
8.391667,0.87059859
8.394444,0.86971831
8.397222,0.86883803
8.400000,0.86883803
8.402778,0.87059859
8.405556,0.86971831
8.408333,0.87147887
8.411111,0.87500000
8.413889,0.87588028
8.416667,0.87588028
8.419444,0.87411972
8.422222,0.86883803
8.425000,0.86443662
8.427778,0.86619718
8.430556,0.86795775
8.433333,0.87059859
8.436111,0.87411972
8.438889,0.87676056
8.441667,0.87676056
8.444444,0.87676056
8.447222,0.87323944
8.450000,0.86795775
8.452778,0.86179577
8.455556,0.85827465
8.458333,0.85739437
8.461111,0.86003521
8.463889,0.86267606
8.466667,0.86531690
8.469444,0.86971831
8.472222,0.87588028
8.475000,0.87411972
8.477778,0.87500000
8.480556,0.87235915
8.483333,0.87059859
8.486111,0.86795775
8.488889,0.86795775
8.491667,0.86355634
8.494444,0.86707746
8.497222,0.87147887
8.500000,0.87588028
8.502778,0.88292254
8.505556,0.89436620
8.508333,0.90404930
8.511111,0.91813380
8.513889,0.93397887
8.516667,0.94454225
8.519444,0.95070423
8.522222,0.94102113
8.525000,0.92165493
8.527778,0.89172535
8.530556,0.86267606
8.533333,0.83802817
8.536111,0.82394366
8.538889,0.81954225
8.541667,0.81426056
8.544444,0.81690141
8.547222,0.82042254
8.550000,0.82746479
8.552778,0.83362676
8.555556,0.83714789
8.558333,0.83802817
8.561111,0.83538732
8.563889,0.83010563
8.566667,0.82394366
8.569444,0.82218310
8.572222,0.82658451
8.575000,0.83098592
8.577778,0.83714789
8.580556,0.83538732
8.583333,0.83274648
8.586111,0.82746479
8.588889,0.82482394
8.591667,0.82658451
8.594444,0.82746479
8.597222,0.82922535
8.600000,0.83626761
8.602778,0.84419014
8.605556,0.84771127
8.608333,0.85035211
8.611111,0.85211268
8.613889,0.85211268
8.616667,0.84947183
8.619444,0.84771127
8.622222,0.84683099
8.625000,0.85123239
8.627778,0.85739437
8.630556,0.86443662
8.633333,0.86795775
8.636111,0.87323944
8.638889,0.87323944
8.641667,0.87235915
8.644444,0.86883803
8.647222,0.86355634
8.650000,0.86179577
8.652778,0.85739437
8.655556,0.85739437
8.658333,0.85915493
8.661111,0.86003521
8.663889,0.86267606
8.666667,0.86355634
8.669444,0.86619718
8.672222,0.86619718
8.675000,0.86707746
8.677778,0.86883803
8.680556,0.86971831
8.683333,0.86971831
8.686111,0.87059859
8.688889,0.86795775
8.691667,0.87147887
8.694444,0.87323944
8.697222,0.87147887
8.700000,0.86795775
8.702778,0.86443662
8.705556,0.86355634
8.708333,0.86003521
8.711111,0.86267606
8.713889,0.86619718
8.716667,0.86883803
8.719444,0.87059859
8.722222,0.87059859
8.725000,0.86883803
8.727778,0.86795775
8.730556,0.86795775
8.733333,0.86883803
8.736111,0.86883803
8.738889,0.87323944
8.741667,0.87588028
8.744444,0.87852113
8.747222,0.87764085
8.750000,0.87764085
8.752778,0.87852113
8.755556,0.87852113
8.758333,0.87940141
8.761111,0.88116197
8.763889,0.88380282
8.766667,0.88732394
8.769444,0.88732394
8.772222,0.88908451
8.775000,0.88908451
8.777778,0.89172535
8.780556,0.88996479
8.783333,0.89084507
8.786111,0.89084507
8.788889,0.89084507
8.791667,0.89172535
8.794444,0.89612676
8.797222,0.89876761
8.800000,0.90404930
8.802778,0.90492958
8.805556,0.90669014
8.808333,0.90316901
8.811111,0.89700704
8.813889,0.89436620
8.816667,0.89172535
8.819444,0.89084507
8.822222,0.88996479
8.825000,0.89172535
8.827778,0.89084507
8.830556,0.89524648
8.833333,0.89524648
8.836111,0.89612676
8.838889,0.89436620
8.841667,0.89436620
8.844444,0.89172535
8.847222,0.88468310
8.850000,0.88116197
8.852778,0.87852113
8.855556,0.87676056
8.858333,0.87676056
8.861111,0.87852113
8.863889,0.87764085
8.866667,0.87588028
8.869444,0.87764085
8.872222,0.87676056
8.875000,0.87147887
8.877778,0.87235915
8.880556,0.87059859
8.883333,0.86795775
8.886111,0.86619718
8.888889,0.86443662
8.891667,0.86267606
8.894444,0.86091549
8.897222,0.86091549
8.900000,0.86443662
8.902778,0.86795775
8.905556,0.86619718
8.908333,0.86179577
8.911111,0.85739437
8.913889,0.85387324
8.916667,0.85123239
8.919444,0.85475352
8.922222,0.85739437
8.925000,0.86355634
8.927778,0.86707746
8.930556,0.86971831
8.933333,0.87588028
8.936111,0.87588028
8.938889,0.87676056
8.941667,0.87676056
8.944444,0.87323944
8.947222,0.86443662
8.950000,0.85915493
8.952778,0.85123239
8.955556,0.85035211
8.958333,0.85299296
8.961111,0.85651408
8.963889,0.86003521
8.966667,0.86619718
8.969444,0.86883803
8.972222,0.87411972
8.975000,0.87500000
8.977778,0.87676056
8.980556,0.87588028
8.983333,0.86971831
8.986111,0.86179577
8.988889,0.85827465
8.991667,0.85299296
8.994444,0.85563380
8.997222,0.85915493
9.000000,0.86179577
9.002778,0.86531690
9.005556,0.86795775
9.008333,0.86883803
9.011111,0.86531690
9.013889,0.86971831
9.016667,0.86971831
9.019444,0.86795775
9.022222,0.86707746
9.025000,0.86531690
9.027778,0.86531690
9.030556,0.86443662
9.033333,0.86619718
9.036111,0.86883803
9.038889,0.86883803
9.041667,0.86355634
9.044444,0.86267606
9.047222,0.86179577
9.050000,0.86179577
9.052778,0.86091549
9.055556,0.85827465
9.058333,0.85915493
9.061111,0.86003521
9.063889,0.86267606
9.066667,0.86619718
9.069444,0.86707746
9.072222,0.86355634
9.075000,0.86003521
9.077778,0.85915493
9.080556,0.85739437
9.083333,0.85827465
9.086111,0.86091549
9.088889,0.86003521
9.091667,0.86179577
9.094444,0.85827465
9.097222,0.86091549
9.100000,0.86091549
9.102778,0.86091549
9.105556,0.86091549
9.108333,0.86003521
9.111111,0.86003521
9.113889,0.85827465
9.116667,0.85739437
9.119444,0.85563380
9.122222,0.85651408
9.125000,0.85563380
9.127778,0.85915493
9.130556,0.86179577
9.133333,0.86531690
9.136111,0.86531690
9.138889,0.86443662
9.141667,0.86091549
9.144444,0.86003521
9.147222,0.85563380
9.150000,0.85299296
9.152778,0.85211268
9.155556,0.85211268
9.158333,0.85475352
9.161111,0.86003521
9.163889,0.86179577
9.166667,0.86531690
9.169444,0.86443662
9.172222,0.86619718
9.175000,0.86443662
9.177778,0.86443662
9.180556,0.86179577
9.183333,0.85739437
9.186111,0.85563380
9.188889,0.85387324
9.191667,0.85563380
9.194444,0.85651408
9.197222,0.85915493
9.200000,0.85827465
9.202778,0.85739437
9.205556,0.85739437
9.208333,0.85651408
9.211111,0.86091549
9.213889,0.86091549
9.216667,0.86179577
9.219444,0.85915493
9.222222,0.85827465
9.225000,0.85827465
9.227778,0.86003521
9.230556,0.86267606
9.233333,0.86179577
9.236111,0.85827465
9.238889,0.85651408
9.241667,0.85651408
9.244444,0.85563380
9.247222,0.85651408
9.250000,0.85651408
9.252778,0.85475352
9.255556,0.85475352
9.258333,0.85651408
9.261111,0.85827465
9.263889,0.86267606
9.266667,0.86531690
9.269444,0.86531690
9.272222,0.86179577
9.275000,0.85739437
9.277778,0.85475352
9.280556,0.85299296
9.283333,0.85211268
9.286111,0.85387324
9.288889,0.85475352
9.291667,0.85651408
9.294444,0.85739437
9.297222,0.85563380
9.300000,0.85387324
9.302778,0.85651408
9.305556,0.86091549
9.308333,0.86267606
9.311111,0.86179577
9.313889,0.86179577
9.316667,0.86003521
9.319444,0.85651408
9.322222,0.85475352
9.325000,0.85651408
9.327778,0.85827465
9.330556,0.86091549
9.333333,0.86091549
9.336111,0.86179577
9.338889,0.85915493
9.341667,0.85739437
9.344444,0.85475352
9.347222,0.85123239
9.350000,0.85123239
9.352778,0.84947183
9.355556,0.85123239
9.358333,0.85299296
9.361111,0.85651408
9.363889,0.85915493
9.366667,0.85915493
9.369444,0.85915493
9.372222,0.85739437
9.375000,0.85563380
9.377778,0.85475352
9.380556,0.85299296
9.383333,0.85563380
9.386111,0.85563380
9.388889,0.86003521
9.391667,0.86003521
9.394444,0.85739437
9.397222,0.85475352
9.400000,0.85299296
9.402778,0.85123239
9.405556,0.85211268
9.408333,0.85299296
9.411111,0.85563380
9.413889,0.85651408
9.416667,0.85915493
9.419444,0.86179577
9.422222,0.86355634
9.425000,0.86179577
9.427778,0.85915493
9.430556,0.85915493
9.433333,0.85563380
9.436111,0.85035211
9.438889,0.84771127
9.441667,0.84859155
9.444444,0.84947183
9.447222,0.85475352
9.450000,0.85739437
9.452778,0.85651408
9.455556,0.85387324
9.458333,0.85387324
9.461111,0.85563380
9.463889,0.85563380
9.466667,0.85827465
9.469444,0.86443662
9.472222,0.86531690
9.475000,0.86267606
9.477778,0.85739437
9.480556,0.85211268
9.483333,0.85123239
9.486111,0.85123239
9.488889,0.85739437
9.491667,0.86267606
9.494444,0.86355634
9.497222,0.86355634
9.500000,0.85563380
9.502778,0.84947183
9.505556,0.84507042
9.508333,0.84507042
9.511111,0.84859155
9.513889,0.85475352
9.516667,0.85827465
9.519444,0.86091549
9.522222,0.86179577
9.525000,0.86179577
9.527778,0.85827465
9.530556,0.85563380
9.533333,0.85299296
9.536111,0.85563380
9.538889,0.85827465
9.541667,0.85827465
9.544444,0.86179577
9.547222,0.86091549
9.550000,0.85827465
9.552778,0.85827465
9.555556,0.85387324
9.558333,0.85123239
9.561111,0.85123239
9.563889,0.85123239
9.566667,0.85651408
9.569444,0.86003521
9.572222,0.86091549
9.575000,0.86267606
9.577778,0.86355634
9.580556,0.86091549
9.583333,0.86003521
9.586111,0.86003521
9.588889,0.85827465
9.591667,0.85475352
9.594444,0.85211268
9.597222,0.85299296
9.600000,0.85387324
9.602778,0.85387324
9.605556,0.85563380
9.608333,0.85387324
9.611111,0.85475352
9.613889,0.85651408
9.616667,0.85739437
9.619444,0.85739437
9.622222,0.85739437
9.625000,0.85739437
9.627778,0.85387324
9.630556,0.85475352
9.633333,0.85563380
9.636111,0.85739437
9.638889,0.86003521
9.641667,0.86091549
9.644444,0.86267606
9.647222,0.86091549
9.650000,0.85827465
9.652778,0.85211268
9.655556,0.85035211
9.658333,0.85123239
9.661111,0.85123239
9.663889,0.85123239
9.666667,0.84683099
9.669444,0.85123239
9.672222,0.85387324
9.675000,0.85563380
9.677778,0.85739437
9.680556,0.85827465
9.683333,0.85475352
9.686111,0.85651408
9.688889,0.85387324
9.691667,0.85211268
9.694444,0.85123239
9.697222,0.84947183
9.700000,0.85035211
9.702778,0.85123239
9.705556,0.85563380
9.708333,0.85387324
9.711111,0.85475352
9.713889,0.85475352
9.716667,0.85035211
9.719444,0.85299296
9.722222,0.85035211
9.725000,0.84947183
9.727778,0.85211268
9.730556,0.85211268
9.733333,0.85387324
9.736111,0.85475352
9.738889,0.85827465
9.741667,0.86091549
9.744444,0.86179577
9.747222,0.86003521
9.750000,0.85387324
9.752778,0.84859155
9.755556,0.84507042
9.758333,0.84595070
9.761111,0.84947183
9.763889,0.85123239
9.766667,0.85299296
9.769444,0.85387324
9.772222,0.85651408
9.775000,0.85739437
9.777778,0.85915493
9.780556,0.85563380
9.783333,0.85299296
9.786111,0.85299296
9.788889,0.84947183
9.791667,0.84947183
9.794444,0.85035211
9.797222,0.85035211
9.800000,0.85387324
9.802778,0.85651408
9.805556,0.85739437
9.808333,0.85915493
9.811111,0.85827465
9.813889,0.85739437
9.816667,0.85651408
9.819444,0.85299296
9.822222,0.85211268
9.825000,0.84947183
9.827778,0.85035211
9.830556,0.84947183
9.833333,0.85035211
9.836111,0.85123239
9.838889,0.85211268
9.841667,0.85475352
9.844444,0.85475352
9.847222,0.85475352
9.850000,0.85387324
9.852778,0.85211268
9.855556,0.84947183
9.858333,0.84947183
9.861111,0.84859155
9.863889,0.84947183
9.866667,0.85123239
9.869444,0.85387324
9.872222,0.85651408
9.875000,0.86003521
9.877778,0.86267606
9.880556,0.86531690
9.883333,0.86355634
9.886111,0.86091549
9.888889,0.85475352
9.891667,0.84859155
9.894444,0.84683099
9.897222,0.84595070
9.900000,0.84771127
9.902778,0.85211268
9.905556,0.85475352
9.908333,0.85299296
9.911111,0.85387324
9.913889,0.84859155
9.916667,0.84595070
9.919444,0.84419014
9.922222,0.84595070
9.925000,0.85211268
9.927778,0.85563380
9.930556,0.86091549
9.933333,0.86355634
9.936111,0.86531690
9.938889,0.86091549
9.941667,0.85651408
9.944444,0.85299296
9.947222,0.84947183
9.950000,0.85035211
9.952778,0.85563380
9.955556,0.85827465
9.958333,0.86267606
9.961111,0.86531690
9.963889,0.86179577
9.966667,0.86091549
9.969444,0.85915493
9.972222,0.86267606
9.975000,0.86619718
9.977778,0.87323944
9.980556,0.87411972
9.983333,0.87500000
9.986111,0.87147887
9.988889,0.86619718
9.991667,0.86091549
9.994444,0.85387324
9.997222,0.85387324
10.000000,0.85387324
10.002778,0.85739437
10.005556,0.86267606
10.008333,0.86619718
10.011111,0.86707746
10.013889,0.86795775
10.016667,0.86971831
10.019444,0.86883803
10.022222,0.86707746
10.025000,0.86179577
10.027778,0.85915493
10.030556,0.85915493
10.033333,0.86091549
10.036111,0.86179577
10.038889,0.86267606
10.041667,0.86003521
10.044444,0.85827465
10.047222,0.85739437
10.050000,0.85739437
10.052778,0.85827465
10.055556,0.85651408
10.058333,0.85475352
10.061111,0.85211268
10.063889,0.84859155
10.066667,0.84947183
10.069444,0.85035211
10.072222,0.85211268
10.075000,0.85035211
10.077778,0.85387324
10.080556,0.85211268
10.083333,0.85299296
10.086111,0.84859155
10.088889,0.84419014
10.091667,0.84419014
10.094444,0.84330986
10.097222,0.84683099
10.100000,0.85123239
10.102778,0.85563380
10.105556,0.85915493
10.108333,0.85827465
10.111111,0.85739437
10.113889,0.85123239
10.116667,0.85035211
10.119444,0.84771127
10.122222,0.84683099
10.125000,0.84771127
10.127778,0.85211268
10.130556,0.85651408
10.133333,0.85739437
10.136111,0.86003521
10.138889,0.86003521
10.141667,0.85563380
10.144444,0.85387324
10.147222,0.84947183
10.150000,0.84859155
10.152778,0.84859155
10.155556,0.85387324
10.158333,0.85387324
10.161111,0.85651408
10.163889,0.85915493
10.166667,0.86091549
10.169444,0.86707746
10.172222,0.87323944
10.175000,0.87940141
10.177778,0.89260563
10.180556,0.90316901
10.183333,0.91549296
10.186111,0.92341549
10.188889,0.92781690
10.191667,0.92517606
10.194444,0.91373239
10.197222,0.89700704
10.200000,0.87323944
10.202778,0.84771127
10.205556,0.82306338
10.208333,0.80897887
10.211111,0.80281690
10.213889,0.80193662
10.216667,0.80193662
10.219444,0.80369718
10.222222,0.80105634
10.225000,0.80369718
10.227778,0.80633803
10.230556,0.81161972
10.233333,0.81161972
10.236111,0.81514085
10.238889,0.81426056
10.241667,0.80985915
10.244444,0.81073944
10.247222,0.81514085
10.250000,0.82130282
10.252778,0.82746479
10.255556,0.82658451
10.258333,0.82834507
10.261111,0.82746479
10.263889,0.82482394
10.266667,0.81866197
10.269444,0.81954225
10.272222,0.81954225
10.275000,0.82306338
10.277778,0.82746479
10.280556,0.83186620
10.283333,0.83274648
10.286111,0.83714789
10.288889,0.84154930
10.291667,0.84683099
10.294444,0.85035211
10.297222,0.85299296
10.300000,0.85299296
10.302778,0.85387324
10.305556,0.85563380
10.308333,0.85827465
10.311111,0.86003521
10.313889,0.86355634
10.316667,0.86355634
10.319444,0.86267606
10.322222,0.86179577
10.325000,0.86091549
10.327778,0.85739437
10.330556,0.85387324
10.333333,0.85123239
10.336111,0.85035211
10.338889,0.85299296
10.341667,0.85387324
10.344444,0.85475352
10.347222,0.85211268
10.350000,0.85123239
10.352778,0.85035211
10.355556,0.84947183
10.358333,0.85299296
10.361111,0.85299296
10.363889,0.85563380
10.366667,0.85827465
10.369444,0.86091549
10.372222,0.86091549
10.375000,0.86443662
10.377778,0.86707746
10.380556,0.86619718
10.383333,0.86531690
10.386111,0.86355634
10.388889,0.86179577
10.391667,0.86003521
10.394444,0.85651408
10.397222,0.85299296
10.400000,0.85475352
10.402778,0.85827465
10.405556,0.86179577
10.408333,0.86443662
10.411111,0.86795775
10.413889,0.86707746
10.416667,0.86707746
10.419444,0.86883803
10.422222,0.87059859
10.425000,0.87588028
10.427778,0.88116197
10.430556,0.88204225
10.433333,0.87676056
10.436111,0.87323944
10.438889,0.86707746
10.441667,0.86531690
10.444444,0.86971831
10.447222,0.87323944
10.450000,0.87852113
10.452778,0.88028169
10.455556,0.87588028
10.458333,0.87147887
10.461111,0.86971831
10.463889,0.87323944
10.466667,0.87764085
10.469444,0.88116197
10.472222,0.88468310
10.475000,0.88820423
10.477778,0.88908451
10.480556,0.89436620
10.483333,0.89612676
10.486111,0.89700704
10.488889,0.89524648
10.491667,0.89436620
10.494444,0.89084507
10.497222,0.88732394
10.500000,0.88556338
10.502778,0.89172535
10.505556,0.89436620
10.508333,0.89788732
10.511111,0.90228873
10.513889,0.90316901
10.516667,0.90052817
10.519444,0.88996479
10.522222,0.88028169
10.525000,0.87323944
10.527778,0.87323944
10.530556,0.87764085
10.533333,0.88380282
10.536111,0.88820423
10.538889,0.89172535
10.541667,0.89084507
10.544444,0.88908451
10.547222,0.88204225
10.550000,0.87411972
10.552778,0.86971831
10.555556,0.86707746
10.558333,0.86531690
10.561111,0.86531690
10.563889,0.86619718
10.566667,0.86531690
10.569444,0.86355634
10.572222,0.86707746
10.575000,0.86531690
10.577778,0.86531690
10.580556,0.86443662
10.583333,0.86267606
10.586111,0.85827465
10.588889,0.85651408
10.591667,0.85387324
10.594444,0.85299296
10.597222,0.85387324
10.600000,0.85211268
10.602778,0.85299296
10.605556,0.85211268
10.608333,0.85035211
10.611111,0.84595070
10.613889,0.84507042
10.616667,0.84154930
10.619444,0.84330986
10.622222,0.84419014
10.625000,0.84419014
10.627778,0.84419014
10.630556,0.84507042
10.633333,0.84683099
10.636111,0.84859155
10.638889,0.85035211
10.641667,0.85035211
10.644444,0.84947183
10.647222,0.84947183
10.650000,0.85123239
10.652778,0.85211268
10.655556,0.85299296
10.658333,0.85563380
10.661111,0.85827465
10.663889,0.85915493
10.666667,0.85827465
10.669444,0.85827465
10.672222,0.85915493
10.675000,0.85651408
10.677778,0.86003521
10.680556,0.85739437
10.683333,0.85563380
10.686111,0.85387324
10.688889,0.84947183
10.691667,0.85123239
10.694444,0.85387324
10.697222,0.85739437
10.700000,0.86003521
10.702778,0.86003521
10.705556,0.86267606
10.708333,0.86355634
10.711111,0.86355634
10.713889,0.85915493
10.716667,0.85299296
10.719444,0.85123239
10.722222,0.85123239
10.725000,0.85299296
10.727778,0.85475352
10.730556,0.85739437
10.733333,0.86179577
10.736111,0.86355634
10.738889,0.86707746
10.741667,0.86619718
10.744444,0.86267606
10.747222,0.86091549
10.750000,0.85739437
10.752778,0.85387324
10.755556,0.84947183
10.758333,0.84683099
10.761111,0.84771127
10.763889,0.85299296
10.766667,0.85563380
10.769444,0.86091549
10.772222,0.86355634
10.775000,0.86619718
10.777778,0.86619718
10.780556,0.86619718
10.783333,0.86003521
10.786111,0.85299296
10.788889,0.84859155
10.791667,0.84683099
10.794444,0.84947183
10.797222,0.85387324
10.800000,0.85387324
10.802778,0.85475352
10.805556,0.85211268
10.808333,0.85123239
10.811111,0.85035211
10.813889,0.84859155
10.816667,0.84947183
10.819444,0.85123239
10.822222,0.85299296
10.825000,0.85475352
10.827778,0.86003521
10.830556,0.86179577
10.833333,0.86355634
10.836111,0.86267606
10.838889,0.86179577
10.841667,0.86267606
10.844444,0.86179577
10.847222,0.87059859
10.850000,0.88292254
10.852778,0.89876761
10.855556,0.91725352
10.858333,0.93573944
10.861111,0.94630282
10.863889,0.94894366
10.866667,0.93309859
10.869444,0.90404930
10.872222,0.86971831
10.875000,0.83362676
10.877778,0.81073944
10.880556,0.79841549
10.883333,0.79577465
10.886111,0.80193662
10.888889,0.80633803
10.891667,0.81338028
10.894444,0.82394366
10.897222,0.82658451
10.900000,0.82658451
10.902778,0.81954225
10.905556,0.81250000
10.908333,0.80457746
10.911111,0.80633803
10.913889,0.81073944
10.916667,0.81866197
10.919444,0.82658451
10.922222,0.82834507
10.925000,0.82922535
10.927778,0.82482394
10.930556,0.82042254
10.933333,0.81954225
10.936111,0.81866197
10.938889,0.82482394
10.941667,0.82746479
10.944444,0.82834507
10.947222,0.83186620
10.950000,0.83274648
10.952778,0.83186620
10.955556,0.83450704
10.958333,0.83626761
10.961111,0.83714789
10.963889,0.84066901
10.966667,0.84330986
10.969444,0.85211268
10.972222,0.85651408
10.975000,0.86179577
10.977778,0.86531690
10.980556,0.86795775
10.983333,0.87059859
10.986111,0.86619718
10.988889,0.85739437
10.991667,0.85035211
10.994444,0.84066901
10.997222,0.83362676
11.000000,0.83362676
11.002778,0.83802817
11.005556,0.84507042
11.008333,0.84771127
11.011111,0.85211268
11.013889,0.85387324
11.016667,0.85299296
11.019444,0.85563380
11.022222,0.86179577
11.025000,0.86883803
11.027778,0.87411972
11.030556,0.87676056
11.033333,0.87147887
11.036111,0.85915493
11.038889,0.84859155
11.041667,0.83978873
11.044444,0.83802817
11.047222,0.84154930
11.050000,0.84419014
11.052778,0.85123239
11.055556,0.85123239
11.058333,0.85739437
11.061111,0.85739437
11.063889,0.85915493
11.066667,0.86003521
11.069444,0.86355634
11.072222,0.86619718
11.075000,0.86531690
11.077778,0.86707746
11.080556,0.86707746
11.083333,0.86971831
11.086111,0.87147887
11.088889,0.87764085
11.091667,0.88204225
11.094444,0.88028169
11.097222,0.87147887
11.100000,0.86267606
11.102778,0.85739437
11.105556,0.85563380
11.108333,0.86003521
11.111111,0.86795775
11.113889,0.87411972
11.116667,0.87852113
11.119444,0.88028169
11.122222,0.88116197
11.125000,0.88028169
11.127778,0.88204225
11.130556,0.88644366
11.133333,0.88996479
11.136111,0.89260563
11.138889,0.89612676
11.141667,0.89700704
11.144444,0.89436620
11.147222,0.89876761
11.150000,0.89700704
11.152778,0.89260563
11.155556,0.88732394
11.158333,0.88292254
11.161111,0.87852113
11.163889,0.87588028
11.166667,0.87676056
11.169444,0.87940141
11.172222,0.88204225
11.175000,0.88380282
11.177778,0.88644366
11.180556,0.88556338
11.183333,0.88116197
11.186111,0.87852113
11.188889,0.87764085
11.191667,0.87940141
11.194444,0.87940141
11.197222,0.87764085
11.200000,0.86971831
11.202778,0.86795775
11.205556,0.86179577
11.208333,0.85827465
11.211111,0.85827465
11.213889,0.85475352
11.216667,0.85387324
11.219444,0.84947183
11.222222,0.84683099
11.225000,0.84683099
11.227778,0.84947183
11.230556,0.85299296
11.233333,0.85739437
11.236111,0.85915493
11.238889,0.86179577
11.241667,0.86003521
11.244444,0.86003521
11.247222,0.85651408
11.250000,0.85035211
11.252778,0.84683099
11.255556,0.84242958
11.258333,0.83802817
11.261111,0.83802817
11.263889,0.83714789
11.266667,0.83890845
11.269444,0.84595070
11.272222,0.85035211
11.275000,0.85123239
11.277778,0.85299296
11.280556,0.85123239
11.283333,0.85211268
11.286111,0.84859155
11.288889,0.84683099
11.291667,0.84859155
11.294444,0.84947183
11.297222,0.85475352
11.300000,0.85563380
11.302778,0.85739437
11.305556,0.85739437
11.308333,0.85739437
11.311111,0.85475352
11.313889,0.85123239
11.316667,0.84947183
11.319444,0.84683099
11.322222,0.84595070
11.325000,0.84683099
11.327778,0.84859155
11.330556,0.85299296
11.333333,0.85563380
11.336111,0.85827465
11.338889,0.85915493
11.341667,0.85739437
11.344444,0.85387324
11.347222,0.85123239
11.350000,0.84771127
11.352778,0.84419014
11.355556,0.84154930
11.358333,0.84507042
11.361111,0.84419014
11.363889,0.84595070
11.366667,0.84771127
11.369444,0.85035211
11.372222,0.85387324
11.375000,0.85387324
11.377778,0.85651408
11.380556,0.85651408
11.383333,0.85475352
11.386111,0.85387324
11.388889,0.85387324
11.391667,0.85475352
11.394444,0.85387324
11.397222,0.85563380
11.400000,0.85387324
11.402778,0.85035211
11.405556,0.84859155
11.408333,0.84507042
11.411111,0.84683099
11.413889,0.84947183
11.416667,0.85299296
11.419444,0.85651408
11.422222,0.85475352
11.425000,0.85387324
11.427778,0.85123239
11.430556,0.84771127
11.433333,0.84595070
11.436111,0.84595070
11.438889,0.84507042
11.441667,0.84507042
11.444444,0.84595070
11.447222,0.84683099
11.450000,0.84683099
11.452778,0.84771127
11.455556,0.84859155
11.458333,0.85123239
11.461111,0.85387324
11.463889,0.85651408
11.466667,0.85563380
11.469444,0.85035211
11.472222,0.84595070
11.475000,0.83890845
11.477778,0.83890845
11.480556,0.83802817
11.483333,0.83802817
11.486111,0.84154930
11.488889,0.84154930
11.491667,0.84595070
11.494444,0.85035211
11.497222,0.85123239
11.500000,0.85475352
11.502778,0.86091549
11.505556,0.87147887
11.508333,0.87588028
11.511111,0.87235915
11.513889,0.85915493
11.516667,0.83890845
11.519444,0.82306338
11.522222,0.81338028
11.525000,0.81602113
11.527778,0.82306338
11.530556,0.83626761
11.533333,0.84595070
11.536111,0.85299296
11.538889,0.85651408
11.541667,0.85563380
11.544444,0.85299296
11.547222,0.84771127
11.550000,0.84595070
11.552778,0.84507042
11.555556,0.84330986
11.558333,0.84419014
11.561111,0.84683099
11.563889,0.84859155
11.566667,0.85299296
11.569444,0.85475352
11.572222,0.86091549
11.575000,0.86179577
11.577778,0.86443662
11.580556,0.85915493
11.583333,0.85299296
11.586111,0.84419014
11.588889,0.84066901
11.591667,0.83450704
11.594444,0.83098592
11.597222,0.83186620
11.600000,0.83362676
11.602778,0.84154930
11.605556,0.84683099
11.608333,0.85123239
11.611111,0.85299296
11.613889,0.85299296
11.616667,0.85299296
11.619444,0.84771127
11.622222,0.84507042
11.625000,0.84330986
11.627778,0.84154930
11.630556,0.84154930
11.633333,0.84330986
11.636111,0.84507042
11.638889,0.84595070
11.641667,0.84771127
11.644444,0.84771127
11.647222,0.84771127
11.650000,0.84683099
11.652778,0.84683099
11.655556,0.84507042
11.658333,0.84595070
11.661111,0.84947183
11.663889,0.85035211
11.666667,0.85387324
11.669444,0.86003521
11.672222,0.86179577
11.675000,0.85563380
11.677778,0.85123239
11.680556,0.84507042
11.683333,0.84066901
11.686111,0.83714789
11.688889,0.83450704
11.691667,0.83538732
11.694444,0.83714789
11.697222,0.83890845
11.700000,0.84330986
11.702778,0.85035211
11.705556,0.85827465
11.708333,0.86179577
11.711111,0.86003521
11.713889,0.85651408
11.716667,0.85123239
11.719444,0.84595070
11.722222,0.84066901
11.725000,0.83714789
11.727778,0.83538732
11.730556,0.83714789
11.733333,0.83626761
11.736111,0.83890845
11.738889,0.84242958
11.741667,0.84595070
11.744444,0.84771127
11.747222,0.84947183
11.750000,0.85123239
11.752778,0.85211268
11.755556,0.85299296
11.758333,0.85123239
11.761111,0.85123239
11.763889,0.85035211
11.766667,0.85035211
11.769444,0.84859155
11.772222,0.84859155
11.775000,0.84771127
11.777778,0.84859155
11.780556,0.84947183
11.783333,0.84947183
11.786111,0.85123239
11.788889,0.85211268
11.791667,0.85563380
11.794444,0.85827465
11.797222,0.85827465
11.800000,0.85563380
11.802778,0.85299296
11.805556,0.84683099
11.808333,0.84242958
11.811111,0.84419014
11.813889,0.84683099
11.816667,0.84595070
11.819444,0.84947183
11.822222,0.85035211
11.825000,0.85035211
11.827778,0.85299296
11.830556,0.85475352
11.833333,0.85387324
11.836111,0.85035211
11.838889,0.84859155
11.841667,0.84419014
11.844444,0.84595070
11.847222,0.84859155
11.850000,0.85123239
11.852778,0.85035211
11.855556,0.84771127
11.858333,0.85123239
11.861111,0.85123239
11.863889,0.85123239
11.866667,0.85387324
11.869444,0.85739437
11.872222,0.85387324
11.875000,0.85211268
11.877778,0.84771127
11.880556,0.84595070
11.883333,0.84154930
11.886111,0.84154930
11.888889,0.84683099
11.891667,0.84947183
11.894444,0.85211268
11.897222,0.85387324
11.900000,0.85827465
11.902778,0.86091549
11.905556,0.86003521
11.908333,0.86003521
11.911111,0.85299296
11.913889,0.84683099
11.916667,0.84066901
11.919444,0.83890845
11.922222,0.84330986
11.925000,0.84947183
11.927778,0.85387324
11.930556,0.85651408
11.933333,0.85651408
11.936111,0.85211268
11.938889,0.85035211
11.941667,0.84683099
11.944444,0.84507042
11.947222,0.84595070
11.950000,0.84947183
11.952778,0.84947183
11.955556,0.85123239
11.958333,0.84947183
11.961111,0.85123239
11.963889,0.85035211
11.966667,0.84859155
11.969444,0.84947183
11.972222,0.84859155
11.975000,0.85035211
11.977778,0.85035211
11.980556,0.85211268
11.983333,0.85211268
11.986111,0.85123239
11.988889,0.85035211
11.991667,0.85123239
11.994444,0.85563380
11.997222,0.86003521
12.000000,0.86179577
12.002778,0.86267606
12.005556,0.86443662
12.008333,0.85827465
12.011111,0.85035211
12.013889,0.84419014
12.016667,0.84066901
12.019444,0.84154930
12.022222,0.84066901
12.025000,0.84242958
12.027778,0.84771127
12.030556,0.85035211
12.033333,0.85475352
12.036111,0.85739437
12.038889,0.85563380
12.041667,0.85827465
12.044444,0.85915493
12.047222,0.85915493
12.050000,0.85915493
12.052778,0.86003521
12.055556,0.85739437
12.058333,0.85739437
12.061111,0.85563380
12.063889,0.85211268
12.066667,0.84947183
12.069444,0.84771127
12.072222,0.85035211
12.075000,0.85123239
12.077778,0.85475352
12.080556,0.85739437
12.083333,0.85827465
12.086111,0.85739437
12.088889,0.85915493
12.091667,0.86003521
12.094444,0.86091549
12.097222,0.86091549
12.100000,0.85827465
12.102778,0.85739437
12.105556,0.85739437
12.108333,0.85739437
12.111111,0.85739437
12.113889,0.85651408
12.116667,0.85475352
12.119444,0.85475352
12.122222,0.85123239
12.125000,0.85035211
12.127778,0.85123239
12.130556,0.85299296
12.133333,0.85211268
12.136111,0.85651408
12.138889,0.85651408
12.141667,0.85563380
12.144444,0.85563380
12.147222,0.85299296
12.150000,0.85123239
12.152778,0.85123239
12.155556,0.85035211
12.158333,0.84859155
12.161111,0.85299296
12.163889,0.85387324
12.166667,0.85475352
12.169444,0.85563380
12.172222,0.85827465
12.175000,0.85739437
12.177778,0.85739437
12.180556,0.86003521
12.183333,0.85651408
12.186111,0.85475352
12.188889,0.85211268
12.191667,0.85123239
12.194444,0.85123239
12.197222,0.85123239
12.200000,0.85475352
12.202778,0.85915493
12.205556,0.86091549
12.208333,0.85915493
12.211111,0.85827465
12.213889,0.85387324
12.216667,0.85299296
12.219444,0.85387324
12.222222,0.85387324
12.225000,0.85563380
12.227778,0.85563380
12.230556,0.85563380
12.233333,0.85651408
12.236111,0.85651408
12.238889,0.86091549
12.241667,0.85915493
12.244444,0.85827465
12.247222,0.85651408
12.250000,0.85123239
12.252778,0.84771127
12.255556,0.84595070
12.258333,0.84683099
12.261111,0.85035211
12.263889,0.85475352
12.266667,0.85827465
12.269444,0.86179577
12.272222,0.86355634
12.275000,0.86443662
12.277778,0.86619718
12.280556,0.86355634
12.283333,0.86267606
12.286111,0.86003521
12.288889,0.85739437
12.291667,0.85475352
12.294444,0.85475352
12.297222,0.85475352
12.300000,0.85563380
12.302778,0.85915493
12.305556,0.86267606
12.308333,0.86707746
12.311111,0.86795775
12.313889,0.86971831
12.316667,0.87059859
12.319444,0.87147887
12.322222,0.86971831
12.325000,0.87147887
12.327778,0.86971831
12.330556,0.86795775
12.333333,0.86531690
12.336111,0.86531690
12.338889,0.86795775
12.341667,0.87059859
12.344444,0.87147887
12.347222,0.87411972
12.350000,0.87588028
12.352778,0.87764085
12.355556,0.87411972
12.358333,0.86795775
12.361111,0.86267606
12.363889,0.85739437
12.366667,0.85475352
12.369444,0.85211268
12.372222,0.85475352
12.375000,0.85739437
12.377778,0.86355634
12.380556,0.86707746
12.383333,0.86971831
12.386111,0.86883803
12.388889,0.86619718
12.391667,0.86355634
12.394444,0.86179577
12.397222,0.85563380
12.400000,0.85475352
12.402778,0.85387324
12.405556,0.85563380
12.408333,0.85739437
12.411111,0.85475352
12.413889,0.85915493
12.416667,0.86003521
12.419444,0.86091549
12.422222,0.86267606
12.425000,0.85915493
12.427778,0.85475352
12.430556,0.85035211
12.433333,0.84859155
12.436111,0.84947183
12.438889,0.85211268
12.441667,0.85387324
12.444444,0.85475352
12.447222,0.85651408
12.450000,0.85475352
12.452778,0.85475352
12.455556,0.85211268
12.458333,0.85035211
12.461111,0.84859155
12.463889,0.85299296
12.466667,0.85651408
12.469444,0.85563380
12.472222,0.85651408
12.475000,0.85475352
12.477778,0.85299296
12.480556,0.84947183
12.483333,0.84859155
12.486111,0.84683099
12.488889,0.84859155
12.491667,0.85211268
12.494444,0.85739437
12.497222,0.86179577
12.500000,0.86443662
12.502778,0.86883803
12.505556,0.87059859
12.508333,0.87235915
12.511111,0.87411972
12.513889,0.87676056
12.516667,0.88028169
12.519444,0.88204225
12.522222,0.88908451
12.525000,0.90404930
12.527778,0.92253521
12.530556,0.94102113
12.533333,0.95334507
12.536111,0.95422535
12.538889,0.93661972
12.541667,0.90140845
12.544444,0.86179577
12.547222,0.82658451
12.550000,0.80633803
12.552778,0.79665493
12.555556,0.79665493
12.558333,0.80457746
12.561111,0.80985915
12.563889,0.81250000
12.566667,0.81690141
12.569444,0.81778169
12.572222,0.81866197
12.575000,0.81778169
12.577778,0.81778169
12.580556,0.81426056
12.583333,0.81161972
12.586111,0.81338028
12.588889,0.81690141
12.591667,0.82394366
12.594444,0.82570423
12.597222,0.82834507
12.600000,0.83010563
12.602778,0.82922535
12.605556,0.82834507
12.608333,0.82482394
12.611111,0.82306338
12.613889,0.82042254
12.616667,0.81690141
12.619444,0.81602113
12.622222,0.81690141
12.625000,0.82130282
12.627778,0.82746479
12.630556,0.83362676
12.633333,0.84330986
12.636111,0.84859155
12.638889,0.85387324
12.641667,0.85387324
12.644444,0.85563380
12.647222,0.85475352
12.650000,0.85123239
12.652778,0.85035211
12.655556,0.85123239
12.658333,0.85123239
12.661111,0.85299296
12.663889,0.85563380
12.666667,0.85915493
12.669444,0.86267606
12.672222,0.86267606
12.675000,0.86267606
12.677778,0.86003521
12.680556,0.85739437
12.683333,0.85475352
12.686111,0.85299296
12.688889,0.85123239
12.691667,0.85211268
12.694444,0.85299296
12.697222,0.85299296
12.700000,0.85563380
12.702778,0.85915493
12.705556,0.86443662
12.708333,0.86619718
12.711111,0.86619718
12.713889,0.86179577
12.716667,0.85651408
12.719444,0.85299296
12.722222,0.85035211
12.725000,0.85211268
12.727778,0.85827465
12.730556,0.86619718
12.733333,0.87059859
12.736111,0.87147887
12.738889,0.86795775
12.741667,0.86003521
12.744444,0.85475352
12.747222,0.85299296
12.750000,0.85563380
12.752778,0.86003521
12.755556,0.86531690
12.758333,0.86883803
12.761111,0.87147887
12.763889,0.86707746
12.766667,0.86795775
12.769444,0.86707746
12.772222,0.86883803
12.775000,0.86795775
12.777778,0.86795775
12.780556,0.87059859
12.783333,0.87323944
12.786111,0.87500000
12.788889,0.87500000
12.791667,0.88028169
12.794444,0.88292254
12.797222,0.88028169
12.800000,0.88292254
12.802778,0.88204225
12.805556,0.88644366
12.808333,0.88820423
12.811111,0.88820423
12.813889,0.88996479
12.816667,0.88996479
12.819444,0.88732394
12.822222,0.88468310
12.825000,0.88380282
12.827778,0.88292254
12.830556,0.88556338
12.833333,0.88556338
12.836111,0.88908451
12.838889,0.89348592
12.841667,0.89700704
12.844444,0.89788732
12.847222,0.89612676
12.850000,0.89348592
12.852778,0.89260563
12.855556,0.88996479
12.858333,0.89084507
12.861111,0.88996479
12.863889,0.89084507
12.866667,0.88996479
12.869444,0.89084507
12.872222,0.89172535
12.875000,0.89172535
12.877778,0.89084507
12.880556,0.89260563
12.883333,0.89084507
12.886111,0.89172535
12.888889,0.89084507
12.891667,0.89084507
12.894444,0.88908451
12.897222,0.88644366
12.900000,0.88380282
12.902778,0.88116197
12.905556,0.87940141
12.908333,0.87588028
12.911111,0.87235915
12.913889,0.87059859
12.916667,0.87323944
12.919444,0.87147887
12.922222,0.87147887
12.925000,0.86971831
12.927778,0.87147887
12.930556,0.86883803
12.933333,0.86795775
12.936111,0.86179577
12.938889,0.85915493
12.941667,0.85387324
12.944444,0.85299296
12.947222,0.85475352
12.950000,0.85475352
12.952778,0.85563380
12.955556,0.85475352
12.958333,0.85387324
12.961111,0.85211268
12.963889,0.85211268
12.966667,0.85123239
12.969444,0.85211268
12.972222,0.85299296
12.975000,0.85211268
12.977778,0.85563380
12.980556,0.85651408
12.983333,0.85651408
12.986111,0.85563380
12.988889,0.85739437
12.991667,0.85915493
12.994444,0.86443662
12.997222,0.86883803
13.000000,0.87235915
13.002778,0.87323944
13.005556,0.87147887
13.008333,0.86971831
13.011111,0.86619718
13.013889,0.86443662
13.016667,0.86267606
13.019444,0.86003521
13.022222,0.85827465
13.025000,0.85827465
13.027778,0.85915493
13.030556,0.86267606
13.033333,0.86267606
13.036111,0.86619718
13.038889,0.86795775
13.041667,0.86883803
13.044444,0.86795775
13.047222,0.86795775
13.050000,0.86971831
13.052778,0.87147887
13.055556,0.87059859
13.058333,0.87059859
13.061111,0.86795775
13.063889,0.86267606
13.066667,0.85739437
13.069444,0.85651408
13.072222,0.85739437
13.075000,0.86003521
13.077778,0.86531690
13.080556,0.87059859
13.083333,0.87500000
13.086111,0.87235915
13.088889,0.87059859
13.091667,0.86355634
13.094444,0.85915493
13.097222,0.85739437
13.100000,0.85475352
13.102778,0.85827465
13.105556,0.86355634
13.108333,0.86619718
13.111111,0.87059859
13.113889,0.87235915
13.116667,0.86883803
13.119444,0.86531690
13.122222,0.86003521
13.125000,0.85475352
13.127778,0.85651408
13.130556,0.85827465
13.133333,0.86091549
13.136111,0.86267606
13.138889,0.86531690
13.141667,0.86619718
13.144444,0.86883803
13.147222,0.86795775
13.150000,0.86883803
13.152778,0.86883803
13.155556,0.86883803
13.158333,0.86795775
13.161111,0.86267606
13.163889,0.85915493
13.166667,0.85651408
13.169444,0.85915493
13.172222,0.85915493
13.175000,0.86091549
13.177778,0.86267606
13.180556,0.86179577
13.183333,0.86619718
13.186111,0.87676056
13.188889,0.88996479
13.191667,0.91021127
13.194444,0.93309859
13.197222,0.94718310
13.200000,0.95598592
13.202778,0.94630282
13.205556,0.92341549
13.208333,0.88908451
13.211111,0.85299296
13.213889,0.82042254
13.216667,0.80545775
13.219444,0.80369718
13.222222,0.80721831
13.225000,0.81514085
13.227778,0.82658451
13.230556,0.83186620
13.233333,0.83274648
13.236111,0.83538732
13.238889,0.83450704
13.241667,0.83098592
13.244444,0.83098592
13.247222,0.83274648
13.250000,0.83538732
13.252778,0.83714789
13.255556,0.83890845
13.258333,0.83626761
13.261111,0.83186620
13.263889,0.82658451
13.266667,0.82218310
13.269444,0.82042254
13.272222,0.81954225
13.275000,0.82130282
13.277778,0.82306338
13.280556,0.82394366
13.283333,0.82570423
13.286111,0.82922535
13.288889,0.83362676
13.291667,0.83890845
13.294444,0.84419014
13.297222,0.85563380
13.300000,0.86531690
13.302778,0.87588028
13.305556,0.87764085
13.308333,0.87323944
13.311111,0.86619718
13.313889,0.85827465
13.316667,0.84771127
13.319444,0.84330986
13.322222,0.84507042
13.325000,0.84683099
13.327778,0.85123239
13.330556,0.85739437
13.333333,0.85915493
13.336111,0.86355634
13.338889,0.86443662
13.341667,0.86267606
13.344444,0.86443662
13.347222,0.86531690
13.350000,0.86707746
13.352778,0.86619718
13.355556,0.86267606
13.358333,0.85739437
13.361111,0.85651408
13.363889,0.85563380
13.366667,0.85915493
13.369444,0.86355634
13.372222,0.86443662
13.375000,0.86619718
13.377778,0.86883803
13.380556,0.86619718
13.383333,0.86179577
13.386111,0.85827465
13.388889,0.85475352
13.391667,0.85387324
13.394444,0.85739437
13.397222,0.86091549
13.400000,0.86267606
13.402778,0.86883803
13.405556,0.87059859
13.408333,0.87500000
13.411111,0.87411972
13.413889,0.87411972
13.416667,0.87147887
13.419444,0.86795775
13.422222,0.86619718
13.425000,0.86443662
13.427778,0.86619718
13.430556,0.87059859
13.433333,0.87764085
13.436111,0.88204225
13.438889,0.88292254
13.441667,0.88204225
13.444444,0.88116197
13.447222,0.87852113
13.450000,0.88028169
13.452778,0.88468310
13.455556,0.88644366
13.458333,0.89084507
13.461111,0.89172535
13.463889,0.89348592
13.466667,0.88996479
13.469444,0.88820423
13.472222,0.88732394
13.475000,0.88820423
13.477778,0.88996479
13.480556,0.89084507
13.483333,0.89348592
13.486111,0.89524648
13.488889,0.89436620
13.491667,0.89172535
13.494444,0.88820423
13.497222,0.88644366
13.500000,0.88820423
13.502778,0.89084507
13.505556,0.89436620
13.508333,0.89612676
13.511111,0.89436620
13.513889,0.89260563
13.516667,0.89084507
13.519444,0.88820423
13.522222,0.88468310
13.525000,0.88644366
13.527778,0.88644366
13.530556,0.88468310
13.533333,0.88204225
13.536111,0.87852113
13.538889,0.87411972
13.541667,0.86971831
13.544444,0.86619718
13.547222,0.86531690
13.550000,0.86619718
13.552778,0.86971831
13.555556,0.87235915
13.558333,0.87235915
13.561111,0.86707746
13.563889,0.86091549
13.566667,0.86179577
13.569444,0.86003521
13.572222,0.85827465
13.575000,0.85563380
13.577778,0.85299296
13.580556,0.84947183
13.583333,0.85035211
13.586111,0.85123239
13.588889,0.85387324
13.591667,0.85651408
13.594444,0.85739437
13.597222,0.85563380
13.600000,0.85123239
13.602778,0.85123239
13.605556,0.85299296
13.608333,0.85563380
13.611111,0.85651408
13.613889,0.85915493
13.616667,0.85739437
13.619444,0.85915493
13.622222,0.85915493
13.625000,0.86091549
13.627778,0.86179577
13.630556,0.85915493
13.633333,0.85827465
13.636111,0.85915493
13.638889,0.85651408
13.641667,0.85827465
13.644444,0.85915493
13.647222,0.85827465
13.650000,0.85827465
13.652778,0.85739437
13.655556,0.85563380
13.658333,0.85651408
13.661111,0.85739437
13.663889,0.85915493
13.666667,0.86179577
13.669444,0.86179577
13.672222,0.86003521
13.675000,0.85827465
13.677778,0.85915493
13.680556,0.85651408
13.683333,0.85739437
13.686111,0.85739437
13.688889,0.85827465
13.691667,0.85827465
13.694444,0.85915493
13.697222,0.86091549
13.700000,0.86091549
13.702778,0.86355634
13.705556,0.86619718
13.708333,0.86707746
13.711111,0.86619718
13.713889,0.86179577
13.716667,0.85651408
13.719444,0.85387324
13.722222,0.85299296
13.725000,0.85475352
13.727778,0.85915493
13.730556,0.86091549
13.733333,0.86267606
13.736111,0.86003521
13.738889,0.85827465
13.741667,0.85651408
13.744444,0.85563380
13.747222,0.85123239
13.750000,0.85299296
13.752778,0.85387324
13.755556,0.85475352
13.758333,0.85739437
13.761111,0.85915493
13.763889,0.86003521
13.766667,0.85827465
13.769444,0.85563380
13.772222,0.85915493
13.775000,0.85827465
13.777778,0.85915493
13.780556,0.86355634
13.783333,0.86003521
13.786111,0.85915493
13.788889,0.85739437
13.791667,0.85739437
13.794444,0.85827465
13.797222,0.85915493
13.800000,0.85563380
13.802778,0.85475352
13.805556,0.85563380
13.808333,0.85299296
13.811111,0.85563380
13.813889,0.85475352
13.816667,0.85651408
13.819444,0.85475352
13.822222,0.85475352
13.825000,0.85299296
13.827778,0.85123239
13.830556,0.85299296
13.833333,0.85475352
13.836111,0.85827465
13.838889,0.86179577
13.841667,0.86179577
13.844444,0.86003521
13.847222,0.85739437
13.850000,0.85475352
13.852778,0.85387324
13.855556,0.85387324
13.858333,0.85651408
13.861111,0.85563380
13.863889,0.85739437
13.866667,0.85827465
13.869444,0.85915493
13.872222,0.86091549
13.875000,0.86091549
13.877778,0.86091549
13.880556,0.86091549
13.883333,0.85827465
13.886111,0.85739437
13.888889,0.85651408
13.891667,0.85475352
13.894444,0.85651408
13.897222,0.85827465
13.900000,0.85915493
13.902778,0.85915493
13.905556,0.85739437
13.908333,0.86003521
13.911111,0.86003521
13.913889,0.85915493
13.916667,0.85651408
13.919444,0.85563380
13.922222,0.85475352
13.925000,0.85563380
13.927778,0.85651408
13.930556,0.85475352
13.933333,0.85651408
13.936111,0.85563380
13.938889,0.85915493
13.941667,0.85915493
13.944444,0.85915493
13.947222,0.85827465
13.950000,0.85299296
13.952778,0.84859155
13.955556,0.84507042
13.958333,0.84595070
13.961111,0.85035211
13.963889,0.85387324
13.966667,0.85739437
13.969444,0.86091549
13.972222,0.86531690
13.975000,0.86355634
13.977778,0.86443662
13.980556,0.86267606
13.983333,0.86003521
13.986111,0.85739437
13.988889,0.85651408
13.991667,0.85035211
13.994444,0.84507042
13.997222,0.84419014
14.000000,0.84507042
14.002778,0.84859155
14.005556,0.85475352
14.008333,0.85915493
14.011111,0.86355634
14.013889,0.86531690
14.016667,0.86179577
14.019444,0.85563380
14.022222,0.84771127
14.025000,0.84683099
14.027778,0.84947183
14.030556,0.85211268
14.033333,0.85563380
14.036111,0.86003521
14.038889,0.86355634
14.041667,0.86267606
14.044444,0.85915493
14.047222,0.85739437
14.050000,0.85475352
14.052778,0.85123239
14.055556,0.85299296
14.058333,0.85299296
14.061111,0.85299296
14.063889,0.85651408
14.066667,0.85739437
14.069444,0.85651408
14.072222,0.85827465
14.075000,0.85915493
14.077778,0.86355634
14.080556,0.86531690
14.083333,0.86707746
14.086111,0.86619718
14.088889,0.86179577
14.091667,0.85915493
14.094444,0.85123239
14.097222,0.84947183
14.100000,0.84595070
14.102778,0.84683099
14.105556,0.85211268
14.108333,0.85475352
14.111111,0.86091549
14.113889,0.86179577
14.116667,0.86091549
14.119444,0.85739437
14.122222,0.85387324
14.125000,0.85475352
14.127778,0.85739437
14.130556,0.85915493
14.133333,0.85827465
14.136111,0.85651408
14.138889,0.85563380
14.141667,0.85123239
14.144444,0.85299296
14.147222,0.85563380
14.150000,0.85387324
14.152778,0.85475352
14.155556,0.85387324
14.158333,0.85739437
14.161111,0.85915493
14.163889,0.86179577
14.166667,0.86355634
14.169444,0.86355634
14.172222,0.86179577
14.175000,0.85915493
14.177778,0.85651408
14.180556,0.85563380
14.183333,0.85475352
14.186111,0.85387324
14.188889,0.85475352
14.191667,0.85651408
14.194444,0.85563380
14.197222,0.85387324
14.200000,0.85475352
14.202778,0.85299296
14.205556,0.85475352
14.208333,0.85563380
14.211111,0.85475352
14.213889,0.85651408
14.216667,0.85739437
14.219444,0.85827465
14.222222,0.86091549
14.225000,0.86267606
14.227778,0.86267606
14.230556,0.86179577
14.233333,0.85739437
14.236111,0.85299296
14.238889,0.85123239
14.241667,0.85123239
14.244444,0.85563380
14.247222,0.86003521
14.250000,0.86179577
14.252778,0.86091549
14.255556,0.85827465
14.258333,0.85563380
14.261111,0.85475352
14.263889,0.85563380
14.266667,0.86091549
14.269444,0.86267606
14.272222,0.86531690
14.275000,0.86355634
14.277778,0.86355634
14.280556,0.86443662
14.283333,0.86179577
14.286111,0.85915493
14.288889,0.85563380
14.291667,0.85123239
14.294444,0.85123239
14.297222,0.85387324
14.300000,0.85827465
14.302778,0.86267606
14.305556,0.86355634
14.308333,0.86179577
14.311111,0.85915493
14.313889,0.85915493
14.316667,0.85563380
14.319444,0.85563380
14.322222,0.85475352
14.325000,0.85739437
14.327778,0.85915493
14.330556,0.85827465
14.333333,0.86003521
14.336111,0.85915493
14.338889,0.85915493
14.341667,0.85827465
14.344444,0.85915493
14.347222,0.86003521
14.350000,0.85651408
14.352778,0.85563380
14.355556,0.85827465
14.358333,0.85915493
14.361111,0.86267606
14.363889,0.86267606
14.366667,0.86355634
14.369444,0.86091549
14.372222,0.86091549
14.375000,0.85827465
14.377778,0.85915493
14.380556,0.86091549
14.383333,0.85651408
14.386111,0.85563380
14.388889,0.85387324
14.391667,0.84595070
14.394444,0.85035211
14.397222,0.85475352
14.400000,0.85915493
14.402778,0.86619718
14.405556,0.86971831
14.408333,0.87059859
14.411111,0.86179577
14.413889,0.85651408
14.416667,0.84859155
14.419444,0.84507042
14.422222,0.84595070
14.425000,0.84947183
14.427778,0.85299296
14.430556,0.85827465
14.433333,0.86091549
14.436111,0.86355634
14.438889,0.86795775
14.441667,0.87059859
14.444444,0.86883803
14.447222,0.86531690
14.450000,0.86003521
14.452778,0.85563380
14.455556,0.85387324
14.458333,0.85387324
14.461111,0.85035211
14.463889,0.84947183
14.466667,0.84771127
14.469444,0.84947183
14.472222,0.85387324
14.475000,0.85827465
14.477778,0.86003521
14.480556,0.86355634
14.483333,0.86443662
14.486111,0.86443662
14.488889,0.86267606
14.491667,0.86267606
14.494444,0.86443662
14.497222,0.86531690
14.500000,0.86091549
14.502778,0.85475352
14.505556,0.85211268
14.508333,0.84595070
14.511111,0.84683099
14.513889,0.84947183
14.516667,0.85211268
14.519444,0.85563380
14.522222,0.85827465
14.525000,0.85739437
14.527778,0.85827465
14.530556,0.85915493
14.533333,0.86003521
14.536111,0.86443662
14.538889,0.86795775
14.541667,0.86883803
14.544444,0.86883803
14.547222,0.86267606
14.550000,0.85475352
14.552778,0.84947183
14.555556,0.84947183
14.558333,0.85035211
14.561111,0.85211268
14.563889,0.85299296
14.566667,0.85299296
14.569444,0.85827465
14.572222,0.86091549
14.575000,0.86355634
14.577778,0.86707746
14.580556,0.86795775
14.583333,0.86531690
14.586111,0.86003521
14.588889,0.85475352
14.591667,0.85211268
14.594444,0.85475352
14.597222,0.85387324
14.600000,0.85651408
14.602778,0.85915493
14.605556,0.86355634
14.608333,0.86443662
14.611111,0.86267606
14.613889,0.86355634
14.616667,0.86531690
14.619444,0.86531690
14.622222,0.86795775
14.625000,0.86883803
14.627778,0.87147887
14.630556,0.87323944
14.633333,0.87323944
14.636111,0.87500000
14.638889,0.87500000
14.641667,0.87323944
14.644444,0.87147887
14.647222,0.86883803
14.650000,0.87147887
14.652778,0.87059859
14.655556,0.87235915
14.658333,0.87147887
14.661111,0.86883803
14.663889,0.86707746
14.666667,0.86707746
14.669444,0.86795775
14.672222,0.87147887
14.675000,0.87323944
14.677778,0.87235915
14.680556,0.86883803
14.683333,0.86267606
14.686111,0.86003521
14.688889,0.85915493
14.691667,0.86179577
14.694444,0.86003521
14.697222,0.86091549
14.700000,0.85915493
14.702778,0.85915493
14.705556,0.86003521
14.708333,0.85827465
14.711111,0.85915493
14.713889,0.85915493
14.716667,0.85827465
14.719444,0.85739437
14.722222,0.85651408
14.725000,0.85651408
14.727778,0.85299296
14.730556,0.85651408
14.733333,0.85915493
14.736111,0.86091549
14.738889,0.86267606
14.741667,0.86443662
14.744444,0.86443662
14.747222,0.86267606
14.750000,0.86267606
14.752778,0.85915493
14.755556,0.85739437
14.758333,0.85387324
14.761111,0.85123239
14.763889,0.85387324
14.766667,0.85299296
14.769444,0.85475352
14.772222,0.85827465
14.775000,0.86091549
14.777778,0.86179577
14.780556,0.86179577
14.783333,0.85739437
14.786111,0.85475352
14.788889,0.85387324
14.791667,0.85035211
14.794444,0.85299296
14.797222,0.85299296
14.800000,0.85651408
14.802778,0.86531690
14.805556,0.86883803
14.808333,0.87235915
14.811111,0.87588028
14.813889,0.88028169
14.816667,0.88292254
14.819444,0.88204225
14.822222,0.87940141
14.825000,0.87940141
14.827778,0.88468310
14.830556,0.89084507
14.833333,0.90228873
14.836111,0.91549296
14.838889,0.93133803
14.841667,0.94014085
14.844444,0.93397887
14.847222,0.91461268
14.850000,0.88116197
14.852778,0.84771127
14.855556,0.82218310
14.858333,0.80897887
14.861111,0.80721831
14.863889,0.80809859
14.866667,0.81514085
14.869444,0.81866197
14.872222,0.82130282
14.875000,0.82306338
14.877778,0.82218310
14.880556,0.81954225
14.883333,0.81866197
14.886111,0.81602113
14.888889,0.81426056
14.891667,0.81866197
14.894444,0.82306338
14.897222,0.83010563
14.900000,0.83450704
14.902778,0.83538732
14.905556,0.83186620
14.908333,0.82746479
14.911111,0.82130282
14.913889,0.82042254
14.916667,0.82042254
14.919444,0.82218310
14.922222,0.82482394
14.925000,0.83010563
14.927778,0.83274648
14.930556,0.83714789
14.933333,0.84242958
14.936111,0.84507042
14.938889,0.84859155
14.941667,0.85035211
14.944444,0.85387324
14.947222,0.85827465
14.950000,0.86003521
14.952778,0.86179577
14.955556,0.86179577
14.958333,0.85915493
14.961111,0.85827465
14.963889,0.86091549
14.966667,0.86443662
14.969444,0.86619718
14.972222,0.86267606
14.975000,0.85651408
14.977778,0.85651408
14.980556,0.85739437
14.983333,0.85915493
14.986111,0.85827465
14.988889,0.86003521
14.991667,0.86003521
14.994444,0.86003521
14.997222,0.86443662
15.000000,0.86355634
15.002778,0.86707746
15.005556,0.86707746
15.008333,0.86707746
15.011111,0.86619718
15.013889,0.86179577
15.016667,0.86003521
15.019444,0.85827465
15.022222,0.85475352
15.025000,0.85739437
15.027778,0.86003521
15.030556,0.86619718
15.033333,0.87059859
15.036111,0.87147887
15.038889,0.86883803
15.041667,0.86707746
15.044444,0.86443662
15.047222,0.86707746
15.050000,0.86883803
15.052778,0.87147887
15.055556,0.87059859
15.058333,0.86883803
15.061111,0.86619718
15.063889,0.86443662
15.066667,0.86443662
15.069444,0.87059859
15.072222,0.87411972
15.075000,0.87852113
15.077778,0.87852113
15.080556,0.87676056
15.083333,0.87500000
15.086111,0.87500000
15.088889,0.87676056
15.091667,0.87764085
15.094444,0.88116197
15.097222,0.88116197
15.100000,0.88116197
15.102778,0.88204225
15.105556,0.88292254
15.108333,0.88380282
15.111111,0.88380282
15.113889,0.88732394
15.116667,0.88644366
15.119444,0.88644366
15.122222,0.88644366
15.125000,0.88732394
15.127778,0.88732394
15.130556,0.88908451
15.133333,0.89084507
15.136111,0.89172535
15.138889,0.89260563
15.141667,0.89172535
15.144444,0.89172535
15.147222,0.88996479
15.150000,0.89084507
15.152778,0.89524648
15.155556,0.89436620
15.158333,0.89348592
15.161111,0.89172535
15.163889,0.88996479
15.166667,0.89084507
15.169444,0.89260563
15.172222,0.89436620
15.175000,0.89524648
15.177778,0.89700704
15.180556,0.89612676
15.183333,0.89348592
15.186111,0.89084507
15.188889,0.88644366
15.191667,0.88204225
15.194444,0.87764085
15.197222,0.87500000
15.200000,0.87411972
15.202778,0.87500000
15.205556,0.87852113
15.208333,0.87940141
15.211111,0.88116197
15.213889,0.88028169
15.216667,0.87852113
15.219444,0.87764085
15.222222,0.87411972
15.225000,0.87235915
15.227778,0.86971831
15.230556,0.86971831
15.233333,0.86883803
15.236111,0.86707746
15.238889,0.86443662
15.241667,0.85915493
15.244444,0.85915493
15.247222,0.86003521
15.250000,0.85915493
15.252778,0.85827465
15.255556,0.85739437
15.258333,0.85651408
15.261111,0.85739437
15.263889,0.85739437
15.266667,0.86267606
15.269444,0.86795775
15.272222,0.87059859
15.275000,0.86883803
15.277778,0.86619718
15.280556,0.86443662
15.283333,0.86091549
15.286111,0.86179577
15.288889,0.86443662
15.291667,0.87147887
15.294444,0.87852113
15.297222,0.88204225
15.300000,0.88292254
15.302778,0.87588028
15.305556,0.86971831
15.308333,0.86355634
15.311111,0.85827465
15.313889,0.85915493
15.316667,0.86443662
15.319444,0.86883803
15.322222,0.87323944
15.325000,0.87588028
15.327778,0.87764085
15.330556,0.87676056
15.333333,0.87500000
15.336111,0.87323944
15.338889,0.87323944
15.341667,0.87059859
15.344444,0.87059859
15.347222,0.86883803
15.350000,0.87059859
15.352778,0.87235915
15.355556,0.87500000
15.358333,0.87588028
15.361111,0.87588028
15.363889,0.87852113
15.366667,0.87852113
15.369444,0.87764085
15.372222,0.88028169
15.375000,0.88028169
15.377778,0.87764085
15.380556,0.87676056
15.383333,0.87676056
15.386111,0.87323944
15.388889,0.87500000
15.391667,0.87764085
15.394444,0.87852113
15.397222,0.87852113
15.400000,0.87852113
15.402778,0.87852113
15.405556,0.87852113
15.408333,0.88116197
15.411111,0.88644366
15.413889,0.88820423
15.416667,0.88556338
15.419444,0.88204225
15.422222,0.87852113
15.425000,0.87323944
15.427778,0.86971831
15.430556,0.87323944
15.433333,0.87764085
15.436111,0.88292254
15.438889,0.88468310
15.441667,0.88292254
15.444444,0.88028169
15.447222,0.87940141
15.450000,0.87852113
15.452778,0.87676056
15.455556,0.87323944
15.458333,0.87059859
15.461111,0.87588028
15.463889,0.87852113
15.466667,0.88292254
15.469444,0.88204225
15.472222,0.87940141
15.475000,0.87676056
15.477778,0.87764085
15.480556,0.88204225
15.483333,0.88644366
15.486111,0.88908451
15.488889,0.88732394
15.491667,0.88468310
15.494444,0.88468310
15.497222,0.88380282
15.500000,0.88996479
15.502778,0.90228873
15.505556,0.91813380
15.508333,0.93309859
15.511111,0.94366197
15.513889,0.95686620
15.516667,0.95774648
15.519444,0.94718310
15.522222,0.92165493
15.525000,0.88820423
15.527778,0.85739437
15.530556,0.83362676
15.533333,0.82482394
15.536111,0.82834507
15.538889,0.83978873
15.541667,0.85035211
15.544444,0.85651408
15.547222,0.85827465
15.550000,0.85563380
15.552778,0.84947183
15.555556,0.83802817
15.558333,0.83098592
15.561111,0.82570423
15.563889,0.83098592
15.566667,0.83978873
15.569444,0.85299296
15.572222,0.86355634
15.575000,0.86531690
15.577778,0.86355634
15.580556,0.85739437
15.583333,0.85387324
15.586111,0.84419014
15.588889,0.83890845
15.591667,0.83362676
15.594444,0.83626761
15.597222,0.83978873
15.600000,0.84947183
