time,amplitude,sr,128.0
0.000000,-0.05583756
0.007812,-0.05245347
0.015625,-0.06598985
0.023438,-0.06937394
0.031250,-0.06260575
0.039062,-0.05245347
0.046875,-0.04568528
0.054688,-0.03214890
0.062500,-0.02538071
0.070312,-0.02199662
0.078125,-0.02199662
0.085938,-0.04230118
0.093750,-0.04230118
0.101562,-0.04230118
0.109375,-0.03891709
0.117188,-0.04230118
0.125000,-0.05583756
0.132812,-0.03891709
0.140625,-0.04906937
0.148438,-0.03891709
0.156250,-0.04568528
0.164062,-0.04568528
0.171875,-0.04230118
0.179688,-0.05922166
0.187500,-0.04906937
0.195312,-0.04230118
0.203125,-0.04906937
0.210938,-0.04906937
0.218750,-0.04568528
0.226562,-0.05583756
0.234375,-0.05245347
0.242188,-0.03214890
0.250000,-0.03553299
0.257812,-0.02538071
0.265625,-0.02876481
0.273438,0.00846024
0.281250,0.00846024
0.289062,-0.00846024
0.296875,-0.02876481
0.304688,-0.03891709
0.312500,-0.04906937
0.320312,-0.04230118
0.328125,-0.05245347
0.335938,-0.06937394
0.343750,-0.07275804
0.351562,-0.07275804
0.359375,-0.05583756
0.367188,-0.05583756
0.375000,-0.05245347
0.382812,-0.20812183
0.390625,-0.28934010
0.398438,-0.06260575
0.406250,0.43824027
0.414062,0.87140440
0.421875,0.90524535
0.429688,0.82741117
0.437500,0.24873096
0.445312,-0.14043993
0.453125,-0.09983080
0.460938,-0.09644670
0.468750,-0.11675127
0.476562,-0.12351946
0.484375,-0.11675127
0.492188,-0.10321489
0.500000,-0.10659898
0.507812,-0.10321489
0.515625,-0.08967851
0.523438,-0.07952623
0.531250,-0.08967851
0.539062,-0.08291032
0.546875,-0.07275804
0.554688,-0.06598985
0.562500,-0.05922166
0.570312,-0.06260575
0.578125,-0.05245347
0.585938,-0.04230118
0.593750,-0.04906937
0.601562,-0.04230118
0.609375,-0.04906937
0.617188,-0.05245347
0.625000,-0.06260575
0.632812,-0.05922166
0.640625,-0.05922166
0.648438,-0.05583756
0.656250,-0.05583756
0.664062,-0.03891709
0.671875,-0.02199662
0.679688,-0.03214890
0.687500,-0.03891709
0.695312,-0.02538071
0.703125,-0.03891709
0.710938,-0.05245347
0.718750,-0.03553299
0.726562,-0.04230118
0.734375,-0.04568528
0.742188,-0.04230118
0.750000,-0.03891709
0.757812,-0.03553299
0.765625,-0.04568528
0.773438,-0.04568528
0.781250,-0.04568528
0.789062,-0.04906937
0.796875,-0.04230118
0.804688,-0.03891709
0.812500,-0.04568528
0.820312,-0.04568528
0.828125,-0.05583756
0.835938,-0.05245347
0.843750,-0.03891709
0.851562,-0.02876481
0.859375,-0.01861252
0.867188,-0.01861252
0.875000,-0.01522843
0.882812,0.02199662
0.890625,0.00169205
0.898438,-0.00507614
0.906250,-0.01861252
0.914062,-0.03891709
0.921875,-0.04568528
0.929688,-0.04568528
0.937500,-0.05922166
0.945312,-0.06937394
0.953125,-0.07614213
0.960938,-0.05922166
0.968750,-0.05922166
0.976562,-0.05245347
0.984375,-0.08629442
0.992188,-0.29610829
1.000000,-0.21827411
1.007812,0.21827411
1.015625,0.78341794
1.023438,0.98984772
1.031250,0.92216582
1.039062,0.41455161
1.046875,-0.06260575
1.054688,-0.09306261
1.062500,-0.09306261
1.070312,-0.09644670
1.078125,-0.09644670
1.085938,-0.11336717
1.093750,-0.10321489
1.101562,-0.09644670
1.109375,-0.09306261
1.117188,-0.09306261
1.125000,-0.08291032
1.132812,-0.08291032
1.140625,-0.07614213
1.148438,-0.06598985
1.156250,-0.06937394
1.164062,-0.05583756
1.171875,-0.04230118
1.179688,-0.04568528
1.187500,-0.03553299
1.195312,-0.03891709
1.203125,-0.03891709
1.210938,-0.03214890
1.218750,-0.05245347
1.226562,-0.05583756
1.234375,-0.06260575
1.242188,-0.06260575
1.250000,-0.05922166
1.257812,-0.06598985
1.265625,-0.04568528
1.273438,-0.03553299
1.281250,-0.03553299
1.289062,-0.03214890
1.296875,-0.03214890
1.304688,-0.03891709
1.312500,-0.03553299
1.320312,-0.03891709
1.328125,-0.03891709
1.335938,-0.04230118
1.343750,-0.03891709
1.351562,-0.03891709
1.359375,-0.03891709
1.367188,-0.03891709
1.375000,-0.03553299
1.382812,-0.03553299
1.390625,-0.03214890
1.398438,-0.04230118
1.406250,-0.03891709
1.414062,-0.03553299
1.421875,-0.03214890
1.429688,-0.03553299
1.437500,-0.03553299
1.445312,-0.03553299
1.453125,-0.02538071
1.460938,-0.01522843
1.468750,-0.01184433
1.476562,-0.00846024
1.484375,0.02199662
1.492188,0.00507614
1.500000,-0.01861252
1.507812,-0.03214890
1.515625,-0.01522843
1.523438,-0.03214890
1.531250,-0.04906937
1.539062,-0.05245347
1.546875,-0.05245347
1.554688,-0.06260575
1.562500,-0.06260575
1.570312,-0.05583756
1.578125,-0.05245347
1.585938,-0.05245347
1.593750,-0.23181049
1.601562,-0.28595601
1.609375,0.01861252
1.617188,0.55668359
1.625000,0.92216582
1.632812,0.96615905
1.640625,0.76311337
1.648438,0.16751269
1.656250,-0.08629442
1.664062,-0.07275804
1.671875,-0.08629442
1.679688,-0.09983080
1.687500,-0.10321489
1.695312,-0.11336717
1.703125,-0.10321489
1.710938,-0.11675127
1.718750,-0.10321489
1.726562,-0.08967851
1.734375,-0.08967851
1.742188,-0.08967851
1.750000,-0.06937394
1.757812,-0.07275804
1.765625,-0.06260575
1.773438,-0.05583756
1.781250,-0.04568528
1.789062,-0.05245347
1.796875,-0.03553299
1.804688,-0.04230118
1.812500,-0.04906937
1.820312,-0.04568528
1.828125,-0.03891709
1.835938,-0.05922166
1.843750,-0.06598985
1.851562,-0.07275804
1.859375,-0.06260575
1.867188,-0.06260575
1.875000,-0.05245347
1.882812,-0.04230118
1.890625,-0.04230118
1.898438,-0.04568528
1.906250,-0.03553299
1.914062,-0.04230118
1.921875,-0.04568528
1.929688,-0.05583756
1.937500,-0.05922166
1.945312,-0.05922166
1.953125,-0.03214890
1.960938,-0.04230118
1.968750,-0.04568528
1.976562,-0.04906937
1.984375,-0.04230118
1.992188,-0.03891709
2.000000,-0.03214890
2.007812,-0.04230118
2.015625,-0.05245347
2.023438,-0.04230118
2.031250,-0.04230118
2.039062,-0.05583756
2.046875,-0.04568528
2.054688,-0.03891709
2.062500,-0.01861252
2.070312,-0.01184433
2.078125,-0.02876481
2.085938,-0.01522843
2.093750,0.01522843
2.101562,-0.00169205
2.109375,-0.01522843
2.117188,-0.04230118
2.125000,-0.04906937
2.132812,-0.03891709
2.140625,-0.04568528
2.148438,-0.05922166
2.156250,-0.07614213
2.164062,-0.06937394
2.171875,-0.06937394
2.179688,-0.08291032
2.187500,-0.06260575
2.195312,-0.06598985
2.203125,-0.28257191
2.210938,-0.26226734
2.218750,0.09983080
2.226562,0.70558376
2.234375,0.97631134
2.242188,0.89509306
2.250000,0.53299492
2.257812,0.00169205
2.265625,-0.10321489
2.273438,-0.08967851
2.281250,-0.10659898
2.289062,-0.12013536
2.296875,-0.12013536
2.304688,-0.12351946
2.312500,-0.12690355
2.320312,-0.11336717
2.328125,-0.09983080
2.335938,-0.09644670
2.343750,-0.09644670
2.351562,-0.08967851
2.359375,-0.08629442
2.367188,-0.08291032
2.375000,-0.06937394
2.382812,-0.05922166
2.390625,-0.06260575
2.398438,-0.04906937
2.406250,-0.05245347
2.414062,-0.05922166
2.421875,-0.04906937
2.429688,-0.07275804
2.437500,-0.07275804
2.445312,-0.07275804
2.453125,-0.08967851
2.460938,-0.08291032
2.468750,-0.07614213
2.476562,-0.05922166
2.484375,-0.06260575
2.492188,-0.05922166
2.500000,-0.05922166
2.507812,-0.05922166
2.515625,-0.05583756
2.523438,-0.05922166
2.531250,-0.06260575
2.539062,-0.06937394
2.546875,-0.06260575
2.554688,-0.06260575
2.562500,-0.06260575
2.570312,-0.05583756
2.578125,-0.05922166
2.585938,-0.06598985
2.593750,-0.05583756
2.601562,-0.06260575
2.609375,-0.06598985
2.617188,-0.05583756
2.625000,-0.05922166
2.632812,-0.05922166
2.640625,-0.05922166
2.648438,-0.06260575
2.656250,-0.06260575
2.664062,-0.06598985
2.671875,-0.06937394
2.679688,-0.04230118
2.687500,-0.04230118
2.695312,-0.04906937
2.703125,-0.03214890
2.710938,-0.00846024
2.718750,-0.01184433
2.726562,-0.02538071
2.734375,-0.03891709
2.742188,-0.04906937
2.750000,-0.05922166
2.757812,-0.07275804
2.765625,-0.07614213
2.773438,-0.07952623
2.781250,-0.08291032
2.789062,-0.08629442
2.796875,-0.08291032
2.804688,-0.07952623
2.812500,-0.06260575
2.820312,-0.24534687
2.828125,-0.30626058
2.835938,-0.03553299
2.843750,0.55668359
2.851562,0.88494078
2.859375,0.85786802
2.867188,0.61759729
2.875000,0.09306261
2.882812,-0.11675127
2.890625,-0.10998308
2.898438,-0.11336717
2.906250,-0.12351946
2.914062,-0.12690355
2.921875,-0.13367174
2.929688,-0.12690355
2.937500,-0.13367174
2.945312,-0.12013536
2.953125,-0.10998308
2.960938,-0.11675127
2.968750,-0.10998308
2.976562,-0.09644670
2.984375,-0.09644670
2.992188,-0.08629442
3.000000,-0.09306261
3.007812,-0.09983080
3.015625,-0.04568528
3.023438,-0.06260575
3.031250,-0.06260575
3.039062,-0.06260575
3.046875,-0.07275804
3.054688,-0.07275804
3.062500,-0.09644670
3.070312,-0.09983080
3.078125,-0.10321489
3.085938,-0.07614213
3.093750,-0.06598985
3.101562,-0.05245347
3.109375,-0.04906937
3.117188,-0.05922166
3.125000,-0.05583756
3.132812,-0.06937394
3.140625,-0.04906937
3.148438,-0.06260575
3.156250,-0.07275804
3.164062,-0.07275804
3.171875,-0.06260575
3.179688,-0.06598985
3.187500,-0.08629442
3.195312,-0.06260575
3.203125,-0.06937394
3.210938,-0.07614213
3.218750,-0.05583756
3.226562,-0.05245347
3.234375,-0.06260575
3.242188,-0.06937394
3.250000,-0.06937394
3.257812,-0.07275804
3.265625,-0.05922166
3.273438,-0.06260575
3.281250,-0.07275804
3.289062,-0.06260575
3.296875,-0.04230118
3.304688,-0.04230118
3.312500,-0.05245347
3.320312,-0.03214890
3.328125,0.00169205
3.335938,-0.02199662
3.343750,-0.04568528
3.351562,-0.04906937
3.359375,-0.03553299
3.367188,-0.05583756
3.375000,-0.07275804
3.382812,-0.07614213
3.390625,-0.08967851
3.398438,-0.07952623
3.406250,-0.08967851
3.414062,-0.09306261
3.421875,-0.06937394
3.429688,-0.10998308
3.437500,-0.30964467
3.445312,-0.23519459
3.453125,0.18443316
3.460938,0.72927242
3.468750,0.89847716
3.476562,0.80372250
3.484375,0.35702200
3.492188,-0.07275804
3.500000,-0.11336717
3.507812,-0.11675127
3.515625,-0.12690355
3.523438,-0.12351946
3.531250,-0.13028765
3.539062,-0.13367174
3.546875,-0.12351946
3.554688,-0.12690355
3.562500,-0.12013536
3.570312,-0.10998308
3.578125,-0.10659898
3.585938,-0.09306261
3.593750,-0.08291032
3.601562,-0.07952623
3.609375,-0.07275804
3.617188,-0.07614213
3.625000,-0.06937394
3.632812,-0.06598985
3.640625,-0.06937394
3.648438,-0.06260575
3.656250,-0.06260575
3.664062,-0.06937394
3.671875,-0.07614213
3.679688,-0.07275804
3.687500,-0.07275804
3.695312,-0.08629442
3.703125,-0.07952623
3.710938,-0.06260575
3.718750,-0.05583756
3.726562,-0.04906937
3.734375,-0.04568528
3.742188,-0.05245347
3.750000,-0.05245347
3.757812,-0.04906937
3.765625,-0.04568528
3.773438,-0.05245347
3.781250,-0.05583756
3.789062,-0.05583756
3.796875,-0.04906937
3.804688,-0.05583756
3.812500,-0.06260575
3.820312,-0.04906937
3.828125,-0.05922166
3.835938,-0.04568528
3.843750,-0.05583756
3.851562,-0.04568528
3.859375,-0.04230118
3.867188,-0.04568528
3.875000,-0.04906937
3.882812,-0.04906937
3.890625,-0.04230118
3.898438,-0.04568528
3.906250,-0.03891709
3.914062,-0.02538071
3.921875,-0.02538071
3.929688,-0.03214890
3.937500,0.00169205
3.945312,0.02538071
3.953125,-0.00169205
3.960938,-0.01861252
3.968750,-0.03214890
3.976562,-0.02538071
3.984375,-0.03891709
3.992188,-0.04906937
4.000000,-0.07614213
4.007812,-0.05922166
4.015625,-0.05583756
4.023438,-0.06598985
4.031250,-0.05245347
4.039062,-0.04568528
4.046875,-0.06260575
4.054688,-0.25211506
4.062500,-0.23519459
4.070312,0.16074450
4.078125,0.74619289
4.085938,0.94585448
4.093750,0.87478849
4.101562,0.47884941
4.109375,-0.01861252
4.117188,-0.09983080
4.125000,-0.08967851
4.132812,-0.09983080
4.140625,-0.09644670
4.148438,-0.09644670
4.156250,-0.10321489
4.164062,-0.09983080
4.171875,-0.08629442
4.179688,-0.09306261
4.187500,-0.09306261
4.195312,-0.07614213
4.203125,-0.06598985
4.210938,-0.06260575
4.218750,-0.05922166
4.226562,-0.05245347
4.234375,-0.04906937
4.242188,-0.04906937
4.250000,-0.03891709
4.257812,-0.04568528
4.265625,-0.03891709
4.273438,-0.03553299
4.281250,-0.05583756
4.289062,-0.04906937
4.296875,-0.06598985
4.304688,-0.05583756
4.312500,-0.04230118
4.320312,-0.04906937
4.328125,-0.03553299
4.335938,-0.01861252
4.343750,-0.02538071
4.351562,-0.02538071
4.359375,-0.03214890
4.367188,-0.02199662
4.375000,-0.02538071
4.382812,-0.03553299
4.390625,-0.03214890
4.398438,-0.02876481
4.406250,-0.04568528
4.414062,-0.04230118
4.421875,-0.03214890
4.429688,-0.03891709
4.437500,-0.03214890
4.445312,-0.03891709
4.453125,-0.03553299
4.460938,-0.03553299
4.468750,-0.03553299
4.476562,-0.05583756
4.484375,-0.04906937
4.492188,-0.02199662
4.500000,-0.03214890
4.507812,-0.03214890
4.515625,-0.02199662
4.523438,-0.00507614
4.531250,-0.01184433
4.539062,-0.00846024
4.546875,0.02876481
4.554688,0.00507614
4.562500,-0.01522843
4.570312,-0.02876481
4.578125,-0.02876481
4.585938,-0.03553299
4.593750,-0.05245347
4.601562,-0.05245347
4.609375,-0.05245347
4.617188,-0.06260575
4.625000,-0.05922166
4.632812,-0.05922166
4.640625,-0.04568528
4.648438,-0.10321489
4.656250,-0.28934010
4.664062,-0.15397631
4.671875,0.30287648
4.679688,0.83079526
4.687500,0.95262267
4.695312,0.86125212
4.703125,0.41455161
4.710938,-0.04230118
4.718750,-0.10998308
4.726562,-0.08629442
4.734375,-0.09644670
4.742188,-0.10321489
4.750000,-0.11336717
4.757812,-0.10321489
4.765625,-0.09306261
4.773438,-0.09306261
4.781250,-0.10321489
4.789062,-0.07952623
4.796875,-0.07952623
4.804688,-0.07275804
4.812500,-0.06937394
4.820312,-0.05922166
4.828125,-0.05245347
4.835938,-0.04568528
4.843750,-0.05245347
4.851562,-0.03214890
4.859375,-0.03553299
4.867188,-0.05245347
4.875000,-0.04568528
4.882812,-0.03553299
4.890625,-0.04906937
4.898438,-0.04568528
4.906250,-0.06598985
4.914062,-0.05583756
4.921875,-0.03891709
4.929688,-0.03553299
4.937500,-0.04230118
4.945312,-0.02876481
4.953125,-0.02538071
4.960938,-0.02538071
4.968750,-0.02538071
4.976562,-0.03553299
4.984375,-0.04568528
4.992188,-0.04230118
5.000000,-0.03891709
5.007812,-0.03214890
5.015625,-0.03891709
5.023438,-0.04568528
5.031250,-0.02538071
5.039062,-0.03214890
5.046875,-0.03553299
5.054688,-0.03891709
5.062500,-0.03553299
5.070312,-0.03553299
5.078125,-0.03214890
5.085938,-0.02876481
5.093750,-0.02538071
5.101562,-0.03214890
5.109375,-0.03214890
5.117188,-0.01184433
5.125000,-0.00169205
5.132812,-0.01861252
5.140625,-0.00507614
5.148438,0.02876481
5.156250,0.01522843
5.164062,-0.00169205
5.171875,-0.02199662
5.179688,-0.01861252
5.187500,-0.01861252
5.195312,-0.02876481
5.203125,-0.04230118
5.210938,-0.06260575
5.218750,-0.04230118
5.226562,-0.04906937
5.234375,-0.05245347
5.242188,-0.04230118
5.250000,-0.05245347
5.257812,-0.24873096
5.265625,-0.24196277
5.273438,0.13028765
5.281250,0.67851100
5.289062,0.94923858
5.296875,0.92554992
5.304688,0.55329949
5.312500,0.02538071
5.320312,-0.06937394
5.328125,-0.07275804
5.335938,-0.07614213
5.343750,-0.09306261
5.351562,-0.10321489
5.359375,-0.09644670
5.367188,-0.09306261
5.375000,-0.08967851
5.382812,-0.08629442
5.390625,-0.09306261
5.398438,-0.07614213
5.406250,-0.05922166
5.414062,-0.06598985
5.421875,-0.05922166
5.429688,-0.04230118
5.437500,-0.02538071
5.445312,-0.03553299
5.453125,-0.02538071
5.460938,-0.04230118
5.468750,-0.03214890
5.476562,-0.01522843
5.484375,-0.02876481
5.492188,-0.04906937
5.500000,-0.06260575
5.507812,-0.08629442
5.515625,-0.06937394
5.523438,-0.05922166
5.531250,-0.04906937
5.539062,-0.05583756
5.546875,-0.03891709
5.554688,-0.02876481
5.562500,-0.02876481
5.570312,-0.03553299
5.578125,-0.03891709
5.585938,-0.03553299
5.593750,-0.04568528
5.601562,-0.04906937
5.609375,-0.03553299
5.617188,-0.04230118
5.625000,-0.04568528
5.632812,-0.03891709
5.640625,-0.03553299
5.648438,-0.04230118
5.656250,-0.04230118
5.664062,-0.05583756
5.671875,-0.03214890
5.679688,-0.02538071
5.687500,-0.03553299
5.695312,-0.04230118
5.703125,-0.04568528
5.710938,-0.03891709
5.718750,-0.03891709
5.726562,-0.03891709
5.734375,-0.01184433
5.742188,-0.01522843
5.750000,-0.02199662
5.757812,0.00846024
5.765625,0.01522843
5.773438,-0.00846024
5.781250,-0.02538071
5.789062,-0.03553299
5.796875,-0.03891709
5.804688,-0.03891709
5.812500,-0.04906937
5.820312,-0.05922166
5.828125,-0.06598985
5.835938,-0.08629442
5.843750,-0.06260575
5.851562,-0.05245347
5.859375,-0.04568528
5.867188,-0.13705584
5.875000,-0.27241963
5.882812,-0.15059222
5.890625,0.34686971
5.898438,0.83417936
5.906250,0.96615905
5.914062,0.83417936
5.921875,0.33671743
5.929688,-0.03553299
5.937500,-0.07614213
5.945312,-0.08967851
5.953125,-0.09983080
5.960938,-0.11336717
5.968750,-0.10998308
5.976562,-0.10998308
5.984375,-0.11336717
5.992188,-0.10321489
6.000000,-0.09983080
6.007812,-0.08629442
6.015625,-0.08629442
6.023438,-0.07614213
6.031250,-0.06937394
6.039062,-0.06937394
6.046875,-0.06260575
6.054688,-0.05245347
6.062500,-0.04568528
6.070312,-0.03553299
6.078125,-0.03214890
6.085938,-0.04230118
6.093750,-0.04568528
6.101562,-0.05922166
6.109375,-0.06260575
6.117188,-0.05245347
6.125000,-0.06937394
6.132812,-0.07275804
6.140625,-0.06598985
6.148438,-0.05245347
6.156250,-0.04230118
6.164062,-0.05245347
6.171875,-0.03891709
6.179688,-0.04230118
6.187500,-0.04568528
6.195312,-0.05583756
6.203125,-0.04906937
6.210938,-0.05583756
6.218750,-0.03891709
6.226562,-0.03891709
6.234375,-0.03891709
6.242188,-0.04568528
6.250000,-0.04906937
6.257812,-0.04906937
6.265625,-0.04230118
6.273438,-0.04230118
6.281250,-0.03214890
6.289062,-0.03214890
6.296875,-0.03553299
6.304688,-0.03891709
6.312500,-0.04568528
6.320312,-0.04568528
6.328125,-0.03891709
6.335938,-0.04906937
6.343750,-0.02876481
6.351562,-0.01522843
6.359375,-0.02199662
6.367188,-0.02199662
6.375000,0.02199662
6.382812,0.01522843
6.390625,0.00169205
6.398438,-0.01861252
6.406250,-0.03214890
6.414062,-0.03553299
6.421875,-0.04568528
6.429688,-0.05245347
6.437500,-0.06937394
6.445312,-0.06598985
6.453125,-0.06598985
6.460938,-0.06598985
6.468750,-0.05922166
6.476562,-0.06598985
6.484375,-0.10321489
6.492188,-0.27580372
6.500000,-0.20812183
6.507812,0.22165821
6.515625,0.78003384
6.523438,0.93570220
6.531250,0.83756345
6.539062,0.36717428
6.546875,-0.05245347
6.554688,-0.09983080
6.562500,-0.08629442
6.570312,-0.10321489
6.578125,-0.10659898
6.585938,-0.11336717
6.593750,-0.11336717
6.601562,-0.10659898
6.609375,-0.10659898
6.617188,-0.09644670
6.625000,-0.08967851
6.632812,-0.08629442
6.640625,-0.08629442
6.648438,-0.07275804
6.656250,-0.06260575
6.664062,-0.04906937
6.671875,-0.05583756
6.679688,-0.04906937
6.687500,-0.04230118
6.695312,-0.04230118
6.703125,-0.03214890
6.710938,-0.04230118
6.718750,-0.05245347
6.726562,-0.04906937
6.734375,-0.06937394
6.742188,-0.07275804
6.750000,-0.07275804
6.757812,-0.05922166
6.765625,-0.06598985
6.773438,-0.02876481
6.781250,-0.01861252
6.789062,-0.03214890
6.796875,-0.02876481
6.804688,-0.03891709
6.812500,-0.04230118
6.820312,-0.03891709
6.828125,-0.04230118
6.835938,-0.04906937
6.843750,-0.04230118
6.851562,-0.03553299
6.859375,-0.03553299
6.867188,-0.03891709
6.875000,-0.03553299
6.882812,-0.02538071
6.890625,-0.02876481
6.898438,-0.03214890
6.906250,-0.03214890
6.914062,-0.02538071
6.921875,-0.02876481
6.929688,-0.03553299
6.937500,-0.03214890
6.945312,-0.02876481
6.953125,-0.02876481
6.960938,-0.03214890
6.968750,-0.03891709
6.976562,-0.02876481
6.984375,-0.03553299
6.992188,-0.01861252
7.000000,-0.01522843
7.007812,-0.00169205
7.015625,0.00507614
7.023438,0.02199662
7.031250,0.01184433
7.039062,0.00507614
7.046875,-0.00846024
7.054688,-0.01522843
7.062500,-0.02876481
7.070312,-0.02538071
7.078125,-0.03553299
7.085938,-0.05245347
7.093750,-0.06260575
7.101562,-0.04906937
7.109375,-0.04568528
7.117188,-0.04906937
7.125000,-0.03891709
7.132812,-0.21827411
7.140625,-0.22842640
7.148438,0.09306261
7.156250,0.65143824
7.164062,0.92893401
7.171875,0.85786802
7.179688,0.58375635
7.187500,0.01522843
7.195312,-0.11336717
7.203125,-0.08967851
7.210938,-0.08967851
7.218750,-0.09644670
7.226562,-0.09644670
7.234375,-0.10659898
7.242188,-0.09983080
7.250000,-0.09306261
7.257812,-0.09306261
7.265625,-0.08967851
7.273438,-0.07952623
7.281250,-0.07614213
7.289062,-0.06598985
7.296875,-0.05922166
7.304688,-0.05245347
7.312500,-0.04906937
7.320312,-0.06937394
7.328125,-0.04230118
7.335938,-0.03553299
7.343750,-0.03553299
7.351562,-0.03214890
7.359375,-0.04230118
7.367188,-0.03891709
7.375000,-0.04906937
7.382812,-0.05583756
7.390625,-0.04906937
7.398438,-0.04568528
7.406250,-0.02876481
7.414062,-0.02199662
7.421875,-0.02199662
7.429688,-0.02876481
7.437500,-0.03214890
7.445312,-0.02876481
7.453125,-0.02538071
7.460938,-0.03891709
7.468750,-0.03891709
7.476562,-0.04568528
7.484375,-0.03553299
7.492188,-0.04906937
7.500000,-0.03891709
7.507812,-0.04230118
7.515625,-0.04568528
7.523438,-0.04230118
7.531250,-0.04906937
7.539062,-0.02876481
7.546875,-0.03214890
7.554688,-0.04906937
7.562500,-0.03553299
7.570312,-0.03553299
7.578125,-0.03553299
7.585938,-0.04906937
7.593750,-0.03553299
7.601562,-0.04568528
7.609375,-0.04230118
7.617188,-0.02876481
7.625000,-0.02538071
7.632812,-0.02876481
7.640625,-0.03553299
7.648438,0.00169205
7.656250,0.02199662
7.664062,-0.00507614
7.671875,-0.02876481
7.679688,-0.03553299
7.687500,-0.03553299
7.695312,-0.03553299
7.703125,-0.05245347
7.710938,-0.05583756
7.718750,-0.06260575
7.726562,-0.06598985
7.734375,-0.06260575
7.742188,-0.06260575
7.750000,-0.05583756
7.757812,-0.05583756
7.765625,-0.25211506
7.773438,-0.23181049
7.781250,0.18443316
7.789062,0.73265651
7.796875,0.95939086
7.804688,0.89170897
7.812500,0.56006768
7.820312,-0.00507614
7.828125,-0.14043993
7.835938,-0.08291032
7.843750,-0.09983080
7.851562,-0.11336717
7.859375,-0.10998308
7.867188,-0.10998308
7.875000,-0.11336717
7.882812,-0.10659898
7.890625,-0.09644670
7.898438,-0.08629442
7.906250,-0.08967851
7.914062,-0.08967851
7.921875,-0.07275804
7.929688,-0.06937394
7.937500,-0.06598985
7.945312,-0.05583756
7.953125,-0.04230118
7.960938,-0.04906937
7.968750,-0.05245347
7.976562,-0.04906937
7.984375,-0.04230118
7.992188,-0.07275804
8.000000,-0.05583756
8.007812,-0.05922166
8.015625,-0.06598985
8.023438,-0.05583756
8.031250,-0.05245347
8.039062,-0.04230118
8.046875,-0.03214890
8.054688,-0.03553299
8.062500,-0.03214890
8.070312,-0.04568528
8.078125,-0.04568528
8.085938,-0.04568528
8.093750,-0.05583756
8.101562,-0.04568528
8.109375,-0.04568528
8.117188,-0.04568528
8.125000,-0.04906937
8.132812,-0.04906937
8.140625,-0.04568528
8.148438,-0.04906937
8.156250,-0.04230118
8.164062,-0.03891709
8.171875,-0.03553299
8.179688,-0.04568528
8.187500,-0.03891709
8.195312,-0.03553299
8.203125,-0.04906937
8.210938,-0.04568528
8.218750,-0.04568528
8.226562,-0.04230118
8.234375,-0.04230118
8.242188,-0.02876481
8.250000,-0.02538071
8.257812,-0.02199662
8.265625,0.00507614
8.273438,0.01522843
8.281250,0.00169205
8.289062,-0.01184433
8.296875,-0.02876481
8.304688,-0.03891709
8.312500,-0.03891709
8.320312,-0.04230118
8.328125,-0.04906937
8.335938,-0.06598985
8.343750,-0.06937394
8.351562,-0.05922166
8.359375,-0.04906937
8.367188,-0.05245347
8.375000,-0.08967851
8.382812,-0.25549915
8.390625,-0.18443316
8.398438,0.23519459
8.406250,0.74280880
8.414062,0.91878173
8.421875,0.85786802
8.429688,0.38747885
8.437500,-0.04568528
8.445312,-0.08291032
8.453125,-0.07275804
8.460938,-0.08967851
8.468750,-0.12013536
8.476562,-0.11336717
8.484375,-0.10321489
8.492188,-0.10659898
8.500000,-0.09983080
8.507812,-0.09983080
8.515625,-0.09306261
8.523438,-0.08629442
8.531250,-0.08629442
8.539062,-0.06937394
8.546875,-0.05583756
8.554688,-0.04906937
8.562500,-0.04906937
8.570312,-0.04230118
8.578125,-0.03553299
8.585938,-0.03891709
8.593750,-0.04568528
8.601562,-0.04568528
8.609375,-0.04230118
8.617188,-0.06260575
8.625000,-0.07275804
8.632812,-0.07952623
8.640625,-0.06937394
8.648438,-0.06598985
8.656250,-0.05583756
8.664062,-0.04568528
8.671875,-0.04568528
8.679688,-0.04230118
8.687500,-0.04568528
8.695312,-0.04568528
8.703125,-0.04568528
8.710938,-0.04906937
8.718750,-0.04568528
8.726562,-0.04568528
8.734375,-0.04568528
8.742188,-0.04230118
8.750000,-0.03891709
8.757812,-0.04906937
8.765625,-0.03553299
8.773438,-0.03891709
8.781250,-0.04568528
8.789062,-0.04568528
8.796875,-0.03214890
8.804688,-0.04230118
8.812500,-0.05245347
8.820312,-0.04568528
8.828125,-0.04568528
8.835938,-0.03891709
8.843750,-0.04568528
8.851562,-0.03553299
8.859375,-0.02876481
8.867188,-0.00846024
8.875000,-0.01522843
8.882812,-0.03553299
8.890625,-0.00169205
8.898438,0.02538071
8.906250,-0.00169205
8.914062,-0.01522843
8.921875,-0.03553299
8.929688,-0.03214890
8.937500,-0.04230118
8.945312,-0.03214890
8.953125,-0.04568528
8.960938,-0.06937394
8.968750,-0.06598985
8.976562,-0.06260575
8.984375,-0.05922166
8.992188,-0.06260575
9.000000,-0.04906937
9.007812,-0.22842640
9.015625,-0.25888325
9.023438,0.11336717
9.031250,0.71573604
9.039062,0.96615905
9.046875,0.88494078
9.054688,0.44162437
9.062500,-0.03214890
9.070312,-0.08967851
9.078125,-0.08967851
9.085938,-0.09644670
9.093750,-0.10998308
9.101562,-0.12013536
9.109375,-0.10321489
9.117188,-0.10998308
9.125000,-0.10321489
9.132812,-0.10321489
9.140625,-0.09644670
9.148438,-0.08291032
9.156250,-0.07952623
9.164062,-0.06937394
9.171875,-0.07614213
9.179688,-0.04568528
9.187500,-0.05922166
9.195312,-0.04230118
9.203125,-0.02538071
9.210938,-0.02876481
9.218750,-0.03214890
9.226562,-0.03553299
9.234375,-0.04906937
9.242188,-0.03891709
9.250000,-0.06260575
9.257812,-0.06598985
9.265625,-0.06598985
9.273438,-0.06937394
9.281250,-0.04568528
9.289062,-0.03553299
9.296875,-0.04568528
9.304688,-0.03553299
9.312500,-0.04568528
9.320312,-0.04568528
9.328125,-0.05245347
9.335938,-0.04568528
9.343750,-0.04230118
9.351562,-0.04568528
9.359375,-0.06260575
9.367188,-0.05583756
9.375000,-0.04230118
9.382812,-0.04906937
9.390625,-0.03891709
9.398438,-0.04230118
9.406250,-0.05583756
9.414062,-0.04230118
9.421875,-0.05245347
9.429688,-0.04906937
9.437500,-0.05583756
9.445312,-0.04906937
9.453125,-0.04568528
9.460938,-0.05245347
9.468750,-0.05245347
9.476562,-0.05922166
9.484375,-0.04906937
9.492188,-0.05922166
9.500000,-0.04906937
9.507812,-0.03214890
9.515625,-0.01861252
9.523438,-0.02876481
9.531250,-0.01861252
9.539062,0.01861252
9.546875,-0.01522843
9.554688,-0.02538071
9.562500,-0.03553299
9.570312,-0.03553299
9.578125,-0.04568528
9.585938,-0.06598985
9.593750,-0.06598985
9.601562,-0.06937394
9.609375,-0.06260575
9.617188,-0.06598985
9.625000,-0.06937394
9.632812,-0.06598985
9.640625,-0.05922166
9.648438,-0.19120135
9.656250,-0.24873096
9.664062,0.01522843
9.671875,0.62774958
9.679688,0.92893401
9.687500,0.87817259
9.695312,0.55668359
9.703125,0.02876481
9.710938,-0.10321489
9.718750,-0.09306261
9.726562,-0.09644670
9.734375,-0.11336717
9.742188,-0.12013536
9.750000,-0.12013536
9.757812,-0.11336717
9.765625,-0.12013536
9.773438,-0.10659898
9.781250,-0.09983080
9.789062,-0.09306261
9.796875,-0.07952623
9.804688,-0.07952623
9.812500,-0.07614213
9.820312,-0.06937394
9.828125,-0.06260575
9.835938,-0.06260575
9.843750,-0.05583756
9.851562,-0.04230118
9.859375,-0.04568528
9.867188,-0.04568528
9.875000,-0.04906937
9.882812,-0.04906937
9.890625,-0.05922166
9.898438,-0.06937394
9.906250,-0.06260575
9.914062,-0.06937394
9.921875,-0.04230118
9.929688,-0.03553299
9.937500,-0.03891709
9.945312,-0.03214890
9.953125,-0.04230118
9.960938,-0.03891709
9.968750,-0.04568528
9.976562,-0.05245347
9.984375,-0.05245347
9.992188,-0.05583756
10.000000,-0.04906937
10.007812,-0.04230118
10.015625,-0.04906937
10.023438,-0.05245347
10.031250,-0.05583756
10.039062,-0.04906937
10.046875,-0.06260575
10.054688,-0.05245347
10.062500,-0.04568528
10.070312,-0.04906937
10.078125,-0.04568528
10.085938,-0.04906937
10.093750,-0.05583756
10.101562,-0.05583756
10.109375,-0.05583756
10.117188,-0.04568528
10.125000,-0.04906937
10.132812,-0.05922166
10.140625,-0.05583756
10.148438,-0.04230118
10.156250,-0.04568528
10.164062,-0.05245347
10.171875,-0.03214890
10.179688,-0.01861252
10.187500,0.00846024
10.195312,-0.00507614
10.203125,-0.03214890
10.210938,-0.04568528
10.218750,-0.02876481
10.226562,-0.04568528
10.234375,-0.04906937
10.242188,-0.06598985
10.250000,-0.07275804
10.257812,-0.08629442
10.265625,-0.07952623
10.273438,-0.06260575
10.281250,-0.06937394
10.289062,-0.07275804
10.296875,-0.21827411
10.304688,-0.24534687
10.312500,0.03214890
10.320312,0.61421320
10.328125,0.89170897
10.335938,0.83756345
10.343750,0.53299492
10.351562,-0.01184433
10.359375,-0.13367174
10.367188,-0.10998308
10.375000,-0.10998308
10.382812,-0.11336717
10.390625,-0.11675127
10.398438,-0.12013536
10.406250,-0.12351946
10.414062,-0.12013536
10.421875,-0.11336717
10.429688,-0.09983080
10.437500,-0.09983080
10.445312,-0.09983080
10.453125,-0.08967851
10.460938,-0.07952623
10.468750,-0.07952623
10.476562,-0.07275804
10.484375,-0.06937394
10.492188,-0.06937394
10.500000,-0.06937394
10.507812,-0.05922166
10.515625,-0.05245347
10.523438,-0.06260575
10.531250,-0.06937394
10.539062,-0.06937394
10.546875,-0.07952623
10.554688,-0.07275804
10.562500,-0.07275804
10.570312,-0.04906937
10.578125,-0.04906937
10.585938,-0.04230118
10.593750,-0.05583756
10.601562,-0.05245347
10.609375,-0.06598985
10.617188,-0.06598985
10.625000,-0.07275804
10.632812,-0.05583756
10.640625,-0.07275804
10.648438,-0.06598985
10.656250,-0.06260575
10.664062,-0.05245347
10.671875,-0.05922166
10.679688,-0.05922166
10.687500,-0.07275804
10.695312,-0.06260575
10.703125,-0.06598985
10.710938,-0.06598985
10.718750,-0.07275804
10.726562,-0.06937394
10.734375,-0.05245347
10.742188,-0.05245347
10.750000,-0.07275804
10.757812,-0.07952623
10.765625,-0.06937394
10.773438,-0.06598985
10.781250,-0.06260575
10.789062,-0.05922166
10.796875,-0.04568528
10.804688,-0.03553299
10.812500,-0.05245347
10.820312,-0.03214890
10.828125,0.00169205
10.835938,-0.02876481
10.843750,-0.03214890
10.851562,-0.04568528
10.859375,-0.04230118
10.867188,-0.05922166
10.875000,-0.06937394
10.882812,-0.07275804
10.890625,-0.08629442
10.898438,-0.08967851
10.906250,-0.09306261
10.914062,-0.07275804
10.921875,-0.07614213
10.929688,-0.06598985
10.937500,-0.21827411
10.945312,-0.25549915
10.953125,0.03553299
10.960938,0.57360406
10.968750,0.90524535
10.976562,0.89509306
10.984375,0.73942470
10.992188,0.14720812
11.000000,-0.12351946
11.007812,-0.09983080
11.015625,-0.12690355
11.023438,-0.12690355
11.031250,-0.12013536
11.039062,-0.12013536
11.046875,-0.13367174
11.054688,-0.12351946
11.062500,-0.10998308
11.070312,-0.09983080
11.078125,-0.09983080
11.085938,-0.09644670
11.093750,-0.09306261
11.101562,-0.08291032
11.109375,-0.08629442
11.117188,-0.06937394
11.125000,-0.07614213
11.132812,-0.07275804
11.140625,-0.05245347
11.148438,-0.04568528
11.156250,-0.05245347
11.164062,-0.05583756
11.171875,-0.05922166
11.179688,-0.06937394
11.187500,-0.06937394
11.195312,-0.08291032
11.203125,-0.07275804
11.210938,-0.07275804
11.218750,-0.05922166
11.226562,-0.04568528
11.234375,-0.04568528
11.242188,-0.04906937
11.250000,-0.04906937
11.257812,-0.06260575
11.265625,-0.06598985
11.273438,-0.06598985
11.281250,-0.05583756
11.289062,-0.05922166
11.296875,-0.05922166
11.304688,-0.06260575
11.312500,-0.07275804
11.320312,-0.05583756
11.328125,-0.05245347
11.335938,-0.05922166
11.343750,-0.06937394
11.351562,-0.05922166
11.359375,-0.05922166
11.367188,-0.05245347
11.375000,-0.05922166
11.382812,-0.06260575
11.390625,-0.06598985
11.398438,-0.05922166
11.406250,-0.05922166
11.414062,-0.06937394
11.421875,-0.04906937
11.429688,-0.03553299
11.437500,-0.03553299
11.445312,-0.03891709
11.453125,-0.00507614
11.460938,-0.00846024
11.468750,-0.03214890
11.476562,-0.04230118
11.484375,-0.04906937
11.492188,-0.05583756
11.500000,-0.06598985
11.507812,-0.05922166
11.515625,-0.07614213
11.523438,-0.07614213
11.531250,-0.07952623
11.539062,-0.07952623
11.546875,-0.07614213
11.554688,-0.06937394
11.562500,-0.15736041
11.570312,-0.29949239
11.578125,-0.09983080
11.585938,0.45177665
11.593750,0.88832487
11.601562,0.93231810
11.609375,0.76311337
11.617188,0.16412860
11.625000,-0.10998308
11.632812,-0.08629442
11.640625,-0.09644670
11.648438,-0.11336717
11.656250,-0.12690355
11.664062,-0.14043993
11.671875,-0.12690355
11.679688,-0.11675127
11.687500,-0.11336717
11.695312,-0.12013536
11.703125,-0.10659898
11.710938,-0.08967851
11.718750,-0.08291032
11.726562,-0.07614213
11.734375,-0.07275804
11.742188,-0.07952623
11.750000,-0.06260575
11.757812,-0.05583756
11.765625,-0.05583756
11.773438,-0.04568528
11.781250,-0.04906937
11.789062,-0.04906937
11.796875,-0.05583756
11.804688,-0.06598985
11.812500,-0.07614213
11.820312,-0.07952623
11.828125,-0.07952623
11.835938,-0.07275804
11.843750,-0.06937394
11.851562,-0.06260575
11.859375,-0.05922166
11.867188,-0.04230118
11.875000,-0.05583756
11.882812,-0.06260575
11.890625,-0.06937394
11.898438,-0.06260575
11.906250,-0.05922166
11.914062,-0.06260575
11.921875,-0.05583756
11.929688,-0.06260575
11.937500,-0.05583756
11.945312,-0.05922166
11.953125,-0.05583756
11.960938,-0.05245347
11.968750,-0.05583756
11.976562,-0.04568528
11.984375,-0.06260575
11.992188,-0.05583756
12.000000,-0.05583756
12.007812,-0.04906937
12.015625,-0.04230118
12.023438,-0.05583756
12.031250,-0.05922166
12.039062,-0.06598985
12.046875,-0.04906937
12.054688,-0.04230118
12.062500,-0.02876481
12.070312,-0.03553299
12.078125,-0.02876481
12.085938,0.00169205
12.093750,-0.00169205
12.101562,-0.01522843
12.109375,-0.02876481
12.117188,-0.04568528
12.125000,-0.04230118
12.132812,-0.04568528
12.140625,-0.05245347
12.148438,-0.07952623
12.156250,-0.08629442
12.164062,-0.07275804
12.171875,-0.06598985
12.179688,-0.06937394
12.187500,-0.06598985
12.195312,-0.10998308
12.203125,-0.25888325
12.210938,-0.18443316
12.218750,0.27918782
12.226562,0.83756345
12.234375,0.96615905
12.242188,0.79695431
12.250000,0.26565144
12.257812,-0.07952623
12.265625,-0.09306261
12.273438,-0.09983080
12.281250,-0.11336717
12.289062,-0.12351946
12.296875,-0.12690355
12.304688,-0.12013536
12.312500,-0.12013536
12.320312,-0.10321489
12.328125,-0.09644670
12.335938,-0.09306261
12.343750,-0.08967851
12.351562,-0.08629442
12.359375,-0.07614213
12.367188,-0.07275804
12.375000,-0.05245347
12.382812,-0.05245347
12.390625,-0.03891709
12.398438,-0.03891709
12.406250,-0.04230118
12.414062,-0.03214890
12.421875,-0.02876481
12.429688,-0.04230118
12.437500,-0.04230118
12.445312,-0.04568528
12.453125,-0.05922166
12.460938,-0.05245347
12.468750,-0.03891709
12.476562,-0.03214890
12.484375,-0.02876481
12.492188,-0.03891709
12.500000,-0.03214890
12.507812,-0.03553299
12.515625,-0.04230118
12.523438,-0.04230118
12.531250,-0.06260575
12.539062,-0.03891709
12.546875,-0.03553299
12.554688,-0.03891709
12.562500,-0.03891709
12.570312,-0.04906937
12.578125,-0.03891709
12.585938,-0.03891709
12.593750,-0.03891709
12.601562,-0.04906937
12.609375,-0.04230118
12.617188,-0.03553299
12.625000,-0.03891709
12.632812,-0.04568528
12.640625,-0.06260575
12.648438,-0.04230118
12.656250,-0.03891709
12.664062,-0.03553299
12.671875,-0.06260575
12.679688,-0.01861252
12.687500,-0.01522843
12.695312,-0.02538071
12.703125,-0.01184433
12.710938,0.01861252
12.718750,0.00846024
12.726562,-0.01184433
12.734375,-0.03891709
12.742188,-0.03891709
12.750000,-0.04568528
12.757812,-0.03553299
12.765625,-0.05245347
12.773438,-0.07275804
12.781250,-0.07614213
12.789062,-0.07275804
12.796875,-0.05922166
12.804688,-0.04906937
12.812500,-0.05245347
12.820312,-0.22842640
12.828125,-0.26565144
12.835938,0.01522843
12.843750,0.57360406
12.851562,0.92554992
12.859375,0.89170897
12.867188,0.72927242
12.875000,0.14382403
12.882812,-0.14043993
12.890625,-0.11675127
12.898438,-0.10321489
12.906250,-0.11675127
12.914062,-0.12013536
12.921875,-0.12013536
12.929688,-0.12351946
12.937500,-0.10998308
12.945312,-0.10321489
12.953125,-0.10321489
12.960938,-0.10321489
12.968750,-0.09644670
12.976562,-0.08629442
12.984375,-0.08629442
12.992188,-0.09306261
13.000000,-0.06598985
13.007812,-0.06598985
13.015625,-0.05245347
13.023438,-0.05583756
13.031250,-0.05583756
13.039062,-0.05922166
13.046875,-0.05922166
13.054688,-0.06937394
13.062500,-0.07614213
13.070312,-0.07275804
13.078125,-0.07952623
13.085938,-0.06937394
13.093750,-0.05583756
13.101562,-0.05583756
13.109375,-0.04568528
13.117188,-0.05583756
13.125000,-0.05245347
13.132812,-0.04230118
13.140625,-0.04230118
13.148438,-0.06260575
13.156250,-0.07614213
13.164062,-0.05922166
13.171875,-0.05583756
13.179688,-0.06260575
13.187500,-0.06260575
13.195312,-0.06598985
13.203125,-0.06260575
13.210938,-0.06598985
13.218750,-0.04906937
13.226562,-0.05922166
13.234375,-0.06937394
13.242188,-0.05245347
13.250000,-0.04906937
13.257812,-0.06937394
13.265625,-0.05922166
13.273438,-0.05583756
13.281250,-0.07275804
13.289062,-0.05922166
13.296875,-0.05583756
13.304688,-0.03553299
13.312500,-0.04568528
13.320312,-0.03214890
13.328125,0.00846024
13.335938,-0.01184433
13.343750,-0.03214890
13.351562,-0.03553299
13.359375,-0.05245347
13.367188,-0.04906937
13.375000,-0.05922166
13.382812,-0.06937394
13.390625,-0.07275804
13.398438,-0.08291032
13.406250,-0.07275804
13.414062,-0.07952623
13.421875,-0.06598985
13.429688,-0.06937394
13.437500,-0.10998308
13.445312,-0.29949239
13.453125,-0.21489002
13.460938,0.22504230
13.468750,0.78680203
13.476562,0.96615905
13.484375,0.87478849
13.492188,0.44162437
13.500000,-0.03553299
13.507812,-0.11675127
13.515625,-0.09306261
13.523438,-0.10998308
13.531250,-0.13028765
13.539062,-0.13705584
13.546875,-0.12690355
13.554688,-0.12351946
13.562500,-0.12013536
13.570312,-0.09644670
13.578125,-0.09644670
13.585938,-0.09644670
13.593750,-0.09644670
13.601562,-0.08967851
13.609375,-0.07614213
13.617188,-0.07952623
13.625000,-0.06598985
13.632812,-0.06598985
13.640625,-0.06260575
13.648438,-0.03891709
13.656250,-0.04568528
13.664062,-0.04906937
13.671875,-0.06598985
13.679688,-0.06260575
13.687500,-0.09983080
13.695312,-0.09306261
13.703125,-0.07952623
13.710938,-0.08967851
13.718750,-0.08629442
13.726562,-0.05922166
13.734375,-0.04230118
13.742188,-0.04906937
13.750000,-0.05245347
13.757812,-0.05245347
13.765625,-0.04906937
13.773438,-0.06598985
13.781250,-0.06260575
13.789062,-0.06937394
13.796875,-0.06260575
13.804688,-0.08291032
13.812500,-0.07275804
13.820312,-0.05922166
13.828125,-0.06260575
13.835938,-0.05245347
13.843750,-0.05922166
13.851562,-0.05922166
13.859375,-0.05583756
13.867188,-0.05922166
13.875000,-0.06260575
13.882812,-0.06260575
13.890625,-0.06260575
13.898438,-0.06598985
13.906250,-0.06598985
13.914062,-0.06260575
13.921875,-0.04230118
13.929688,-0.04230118
13.937500,-0.05922166
13.945312,-0.02199662
13.953125,-0.00169205
13.960938,-0.03553299
13.968750,-0.04906937
13.976562,-0.05583756
13.984375,-0.05245347
13.992188,-0.06598985
14.000000,-0.07614213
14.007812,-0.08291032
14.015625,-0.09306261
14.023438,-0.09644670
14.031250,-0.08967851
14.039062,-0.08967851
14.046875,-0.06598985
14.054688,-0.15059222
14.062500,-0.30626058
14.070312,-0.14382403
14.078125,0.41455161
14.085938,0.89170897
14.093750,1.00000000
14.101562,0.81725888
14.109375,0.23857868
14.117188,-0.09306261
14.125000,-0.10659898
14.132812,-0.10998308
14.140625,-0.12351946
14.148438,-0.14043993
14.156250,-0.13705584
14.164062,-0.13705584
14.171875,-0.13367174
14.179688,-0.11336717
14.187500,-0.11336717
14.195312,-0.12351946
14.203125,-0.10998308
14.210938,-0.08967851
14.218750,-0.09983080
14.226562,-0.08629442
14.234375,-0.06937394
14.242188,-0.05922166
14.250000,-0.06937394
14.257812,-0.05583756
14.265625,-0.04906937
14.273438,-0.05583756
14.281250,-0.05922166
14.289062,-0.06260575
14.296875,-0.06937394
14.304688,-0.07952623
14.312500,-0.08291032
14.320312,-0.07614213
14.328125,-0.07275804
14.335938,-0.07952623
14.343750,-0.05245347
14.351562,-0.04568528
14.359375,-0.04568528
14.367188,-0.05583756
14.375000,-0.05922166
14.382812,-0.06260575
14.390625,-0.05922166
14.398438,-0.06260575
14.406250,-0.06937394
14.414062,-0.05245347
14.421875,-0.05245347
14.429688,-0.05245347
14.437500,-0.05922166
14.445312,-0.05922166
14.453125,-0.04906937
14.460938,-0.04568528
14.468750,-0.04568528
14.476562,-0.04568528
14.484375,-0.03891709
14.492188,-0.05245347
14.500000,-0.04230118
14.507812,-0.04568528
14.515625,-0.05245347
14.523438,-0.04568528
14.531250,-0.04230118
14.539062,-0.03553299
14.546875,-0.02199662
14.554688,-0.01861252
14.562500,-0.02538071
14.570312,-0.00169205
14.578125,-0.00169205
14.585938,-0.01184433
14.593750,-0.02538071
14.601562,-0.03214890
14.609375,-0.03214890
14.617188,-0.04568528
14.625000,-0.04230118
14.632812,-0.05245347
14.640625,-0.05922166
14.648438,-0.05583756
14.656250,-0.05922166
14.664062,-0.05245347
14.671875,-0.04230118
14.679688,-0.06260575
14.687500,-0.22165821
14.695312,-0.20473773
14.703125,0.17089679
14.710938,0.61421320
14.718750,0.73604061
14.726562,0.65143824
14.734375,0.26226734
14.742188,-0.04230118
14.750000,-0.07614213
14.757812,-0.07275804
14.765625,-0.08629442
14.773438,-0.10659898
14.781250,-0.11336717
14.789062,-0.10659898
14.796875,-0.10321489
14.804688,-0.10659898
14.812500,-0.09983080
14.820312,-0.09644670
14.828125,-0.09644670
14.835938,-0.07275804
14.843750,-0.06937394
14.851562,-0.06598985
14.859375,-0.07275804
14.867188,-0.06937394
14.875000,-0.05583756
14.882812,-0.05922166
14.890625,-0.04230118
14.898438,-0.05245347
14.906250,-0.06598985
14.914062,-0.06260575
14.921875,-0.06260575
14.929688,-0.04906937
14.937500,-0.06260575
14.945312,-0.05922166
14.953125,-0.04230118
14.960938,-0.03891709
14.968750,-0.04230118
14.976562,-0.03891709
14.984375,-0.04568528
14.992188,-0.05583756
15.000000,-0.05922166
15.007812,-0.05583756
15.015625,-0.04906937
15.023438,-0.06598985
15.031250,-0.07275804
15.039062,-0.06598985
15.046875,-0.05922166
15.054688,-0.05245347
15.062500,-0.06937394
15.070312,-0.05583756
15.078125,-0.05245347
15.085938,-0.05583756
15.093750,-0.05583756
15.101562,-0.06260575
15.109375,-0.05245347
15.117188,-0.05922166
15.125000,-0.05922166
15.132812,-0.07275804
15.140625,-0.05922166
15.148438,-0.05245347
15.156250,-0.05583756
15.164062,-0.04230118
15.171875,-0.03891709
15.179688,-0.01861252
15.187500,0.00846024
15.195312,-0.01522843
15.203125,-0.04568528
15.210938,-0.05245347
15.218750,-0.04906937
15.226562,-0.08629442
15.234375,-0.05583756
15.242188,-0.06598985
15.250000,-0.08291032
15.257812,-0.08291032
15.265625,-0.07952623
15.273438,-0.08629442
15.281250,-0.07614213
15.289062,-0.07952623
15.296875,-0.27918782
15.304688,-0.25549915
15.312500,0.11336717
15.320312,0.66835871
15.328125,0.92216582
15.335938,0.84094755
15.343750,0.59052453
15.351562,0.01522843
15.359375,-0.15059222
15.367188,-0.10998308
15.375000,-0.11675127
15.382812,-0.12690355
15.390625,-0.13028765
15.398438,-0.13367174
15.406250,-0.12690355
15.414062,-0.11675127
15.421875,-0.10998308
15.429688,-0.11336717
15.437500,-0.10659898
15.445312,-0.09644670
15.453125,-0.08629442
15.460938,-0.09306261
15.468750,-0.09306261
15.476562,-0.07614213
15.484375,-0.06937394
15.492188,-0.07614213
15.500000,-0.07275804
15.507812,-0.06598985
15.515625,-0.05922166
15.523438,-0.06598985
15.531250,-0.08291032
15.539062,-0.07614213
15.546875,-0.08291032
15.554688,-0.07952623
15.562500,-0.07275804
15.570312,-0.05245347
15.578125,-0.04568528
15.585938,-0.05245347
15.593750,-0.05245347
15.601562,-0.04230118
15.609375,-0.05922166
15.617188,-0.06598985
15.625000,-0.05922166
15.632812,-0.05922166
15.640625,-0.05922166
15.648438,-0.05922166
15.656250,-0.07275804
15.664062,-0.06260575
15.671875,-0.05245347
15.679688,-0.06598985
15.687500,-0.05922166
15.695312,-0.05922166
15.703125,-0.06260575
15.710938,-0.05245347
15.718750,-0.06937394
15.726562,-0.06260575
15.734375,-0.05922166
15.742188,-0.04906937
15.750000,-0.07614213
15.757812,-0.05583756
15.765625,-0.03553299
15.773438,-0.04230118
15.781250,-0.04230118
15.789062,-0.01522843
15.796875,-0.00507614
15.804688,-0.01522843
15.812500,-0.02876481
15.820312,-0.06260575
15.828125,-0.05922166
15.835938,-0.05583756
15.843750,-0.05922166
15.851562,-0.07275804
15.859375,-0.07614213
15.867188,-0.07952623
15.875000,-0.07952623
15.882812,-0.07952623
15.890625,-0.06937394
15.898438,-0.10321489
15.906250,-0.31302876
15.914062,-0.25211506
15.921875,0.17766497
15.929688,0.74280880
15.937500,0.93908629
15.945312,0.86463621
15.953125,0.44500846
15.960938,-0.03553299
15.968750,-0.10998308
15.976562,-0.08967851
15.984375,-0.10659898
15.992188,-0.12351946
16.000000,-0.13028765
16.007812,-0.13028765
16.015625,-0.11675127
16.023438,-0.12690355
16.031250,-0.11675127
16.039062,-0.10659898
16.046875,-0.10659898
16.054688,-0.11336717
16.062500,-0.08629442
16.070312,-0.07952623
16.078125,-0.07275804
16.085938,-0.07275804
16.093750,-0.06598985
16.101562,-0.05922166
16.109375,-0.05583756
16.117188,-0.06260575
16.125000,-0.05583756
16.132812,-0.05922166
16.140625,-0.07614213
16.148438,-0.08629442
16.156250,-0.08629442
16.164062,-0.08629442
16.171875,-0.08629442
16.179688,-0.07614213
16.187500,-0.07275804
16.195312,-0.06260575
16.203125,-0.06260575
16.210938,-0.05922166
16.218750,-0.05245347
16.226562,-0.06260575
16.234375,-0.05922166
16.242188,-0.06260575
16.250000,-0.08291032
16.257812,-0.06598985
16.265625,-0.05922166
16.273438,-0.06260575
16.281250,-0.05922166
16.289062,-0.06260575
16.296875,-0.05922166
16.304688,-0.06937394
16.312500,-0.07275804
16.320312,-0.05922166
16.328125,-0.05583756
16.335938,-0.05245347
16.343750,-0.05922166
16.351562,-0.05922166
16.359375,-0.06598985
16.367188,-0.06260575
16.375000,-0.04230118
16.382812,-0.03891709
16.390625,-0.03891709
16.398438,-0.03891709
16.406250,0.00169205
16.414062,-0.01184433
16.421875,-0.03553299
16.429688,-0.04568528
16.437500,-0.05245347
16.445312,-0.05583756
16.453125,-0.06598985
16.460938,-0.08291032
16.468750,-0.07614213
16.476562,-0.07952623
16.484375,-0.09644670
16.492188,-0.07614213
16.500000,-0.06937394
16.507812,-0.07275804
16.515625,-0.24873096
16.523438,-0.28257191
16.531250,0.02538071
16.539062,0.60406091
16.546875,0.92893401
16.554688,0.88155668
16.562500,0.56683587
16.570312,0.04568528
16.578125,-0.10659898
16.585938,-0.09644670
16.593750,-0.12351946
16.601562,-0.12690355
16.609375,-0.12013536
16.617188,-0.12690355
16.625000,-0.12690355
16.632812,-0.13028765
16.640625,-0.11336717
16.648438,-0.11336717
16.656250,-0.10321489
16.664062,-0.09983080
16.671875,-0.08629442
16.679688,-0.07614213
16.687500,-0.07614213
16.695312,-0.06937394
16.703125,-0.06260575
16.710938,-0.05922166
16.718750,-0.05583756
16.726562,-0.04906937
16.734375,-0.05922166
16.742188,-0.05245347
16.750000,-0.05922166
16.757812,-0.07952623
16.765625,-0.07614213
16.773438,-0.06937394
16.781250,-0.07614213
16.789062,-0.07275804
16.796875,-0.05583756
16.804688,-0.05245347
16.812500,-0.05245347
16.820312,-0.06937394
16.828125,-0.04230118
16.835938,-0.05922166
16.843750,-0.05583756
16.851562,-0.06260575
16.859375,-0.05245347
16.867188,-0.05245347
16.875000,-0.05583756
16.882812,-0.05922166
16.890625,-0.05245347
16.898438,-0.05583756
16.906250,-0.05922166
16.914062,-0.04906937
16.921875,-0.04906937
16.929688,-0.05245347
16.937500,-0.05583756
16.945312,-0.04568528
16.953125,-0.05583756
16.960938,-0.05922166
16.968750,-0.04568528
16.976562,-0.04906937
16.984375,-0.05583756
16.992188,-0.04230118
17.000000,-0.03553299
17.007812,-0.02876481
17.015625,-0.02876481
17.023438,-0.02876481
17.031250,0.01184433
17.039062,0.00846024
17.046875,-0.01522843
17.054688,-0.03214890
17.062500,-0.03891709
17.070312,-0.03891709
17.078125,-0.04568528
17.085938,-0.05245347
17.093750,-0.06937394
17.101562,-0.07275804
17.109375,-0.06598985
17.117188,-0.06598985
17.125000,-0.06598985
17.132812,-0.05922166
17.140625,-0.10998308
17.148438,-0.28595601
17.156250,-0.19796954
17.164062,0.35702200
17.171875,0.87817259
17.179688,0.93231810
17.187500,0.78341794
17.195312,0.24534687
17.203125,-0.08967851
17.210938,-0.08967851
17.218750,-0.10659898
17.226562,-0.10321489
17.234375,-0.10321489
17.242188,-0.12690355
17.250000,-0.10998308
17.257812,-0.10321489
17.265625,-0.10659898
17.273438,-0.08967851
17.281250,-0.09306261
17.289062,-0.08967851
17.296875,-0.08291032
17.304688,-0.07952623
17.312500,-0.05922166
17.320312,-0.04906937
17.328125,-0.04568528
17.335938,-0.04230118
17.343750,-0.03891709
17.351562,-0.04230118
17.359375,-0.04568528
17.367188,-0.03553299
17.375000,-0.04230118
17.382812,-0.04906937
17.390625,-0.05922166
17.398438,-0.05922166
17.406250,-0.05245347
17.414062,-0.03553299
17.421875,-0.03214890
17.429688,-0.02199662
17.437500,-0.02199662
17.445312,-0.03214890
17.453125,-0.03214890
17.460938,-0.04230118
17.468750,-0.03214890
17.476562,-0.04230118
17.484375,-0.02876481
17.492188,-0.04230118
17.500000,-0.03891709
17.507812,-0.04230118
17.515625,-0.03553299
17.523438,-0.03553299
17.531250,-0.03214890
17.539062,-0.03891709
17.546875,-0.02876481
17.554688,-0.03891709
17.562500,-0.05245347
17.570312,-0.03891709
17.578125,-0.03553299
17.585938,-0.03214890
17.593750,-0.03553299
17.601562,-0.03214890
17.609375,-0.03553299
17.617188,-0.03891709
17.625000,-0.03214890
17.632812,-0.02199662
17.640625,-0.01522843
17.648438,-0.02199662
17.656250,0.00169205
17.664062,0.00846024
17.671875,-0.00169205
17.679688,-0.01522843
17.687500,-0.03553299
17.695312,-0.03214890
17.703125,-0.04906937
17.710938,-0.05245347
17.718750,-0.05583756
17.726562,-0.06260575
17.734375,-0.06598985
17.742188,-0.06937394
17.750000,-0.07614213
17.757812,-0.06937394
17.765625,-0.07614213
17.773438,-0.25888325
17.781250,-0.22165821
17.789062,0.16074450
17.796875,0.73265651
17.804688,0.89847716
17.812500,0.83417936
17.820312,0.50253807
17.828125,-0.01861252
17.835938,-0.13705584
17.843750,-0.09306261
17.851562,-0.10659898
17.859375,-0.11675127
17.867188,-0.11675127
17.875000,-0.12690355
17.882812,-0.12351946
17.890625,-0.12013536
17.898438,-0.12013536
17.906250,-0.10659898
17.914062,-0.09644670
17.921875,-0.08291032
17.929688,-0.07614213
17.937500,-0.07275804
17.945312,-0.08629442
17.953125,-0.07275804
17.960938,-0.05922166
17.968750,-0.06260575
17.976562,-0.05583756
17.984375,-0.04906937
17.992188,-0.05922166
18.000000,-0.06598985
18.007812,-0.06598985
18.015625,-0.07275804
18.023438,-0.06937394
18.031250,-0.06598985
18.039062,-0.05922166
18.046875,-0.04568528
18.054688,-0.04230118
18.062500,-0.03214890
18.070312,-0.03553299
18.078125,-0.04230118
18.085938,-0.05245347
18.093750,-0.03891709
18.101562,-0.04230118
18.109375,-0.04568528
18.117188,-0.05245347
18.125000,-0.04906937
18.132812,-0.04906937
18.140625,-0.04230118
18.148438,-0.04568528
18.156250,-0.04230118
18.164062,-0.03891709
18.171875,-0.03891709
18.179688,-0.04906937
18.187500,-0.04568528
18.195312,-0.03891709
18.203125,-0.03891709
18.210938,-0.04230118
18.218750,-0.04906937
18.226562,-0.04568528
18.234375,-0.04568528
18.242188,-0.05583756
18.250000,-0.04568528
18.257812,-0.04230118
18.265625,-0.02538071
18.273438,-0.02876481
18.281250,-0.00507614
18.289062,0.00169205
18.296875,-0.01861252
18.304688,-0.02538071
18.312500,-0.03214890
18.320312,-0.04568528
18.328125,-0.05245347
18.335938,-0.05583756
18.343750,-0.06260575
18.351562,-0.07614213
18.359375,-0.07614213
18.367188,-0.07614213
18.375000,-0.07614213
18.382812,-0.06937394
18.390625,-0.06598985
18.398438,-0.25549915
18.406250,-0.24873096
18.414062,0.12013536
18.421875,0.70558376
18.429688,0.95600677
18.437500,0.89847716
18.445312,0.54653130
18.453125,-0.01522843
18.460938,-0.12351946
18.468750,-0.09983080
18.476562,-0.10321489
18.484375,-0.11675127
18.492188,-0.12351946
18.500000,-0.12013536
18.507812,-0.11336717
18.515625,-0.10659898
18.523438,-0.10321489
18.531250,-0.10998308
18.539062,-0.08967851
18.546875,-0.08291032
18.554688,-0.08291032
18.562500,-0.07275804
18.570312,-0.05583756
18.578125,-0.06260575
18.585938,-0.06260575
18.593750,-0.04230118
18.601562,-0.04906937
18.609375,-0.05245347
18.617188,-0.04568528
18.625000,-0.05245347
18.632812,-0.06260575
18.640625,-0.05245347
18.648438,-0.07275804
18.656250,-0.07952623
18.664062,-0.07275804
18.671875,-0.05245347
18.679688,-0.04906937
18.687500,-0.04230118
18.695312,-0.04230118
18.703125,-0.03891709
18.710938,-0.05245347
18.718750,-0.04568528
18.726562,-0.04230118
18.734375,-0.05245347
18.742188,-0.05245347
18.750000,-0.04230118
18.757812,-0.04230118
18.765625,-0.04906937
18.773438,-0.04230118
18.781250,-0.05245347
18.789062,-0.04906937
18.796875,-0.04230118
18.804688,-0.04906937
18.812500,-0.04568528
18.820312,-0.02876481
18.828125,-0.03553299
18.835938,-0.05922166
18.843750,-0.04230118
18.851562,-0.02876481
18.859375,-0.04568528
18.867188,-0.05245347
18.875000,-0.04230118
18.882812,-0.03553299
18.890625,-0.02199662
18.898438,-0.01861252
18.906250,-0.03214890
18.914062,-0.00846024
18.921875,0.01861252
18.929688,-0.01184433
18.937500,-0.01184433
18.945312,-0.02199662
18.953125,-0.02876481
18.960938,-0.03553299
18.968750,-0.04568528
18.976562,-0.06260575
18.984375,-0.05922166
18.992188,-0.06260575
19.000000,-0.07275804
19.007812,-0.06260575
19.015625,-0.04906937
19.023438,-0.04568528
19.031250,-0.22842640
19.039062,-0.25211506
19.046875,0.07275804
19.054688,0.66159052
19.062500,0.95939086
19.070312,0.88832487
19.078125,0.50592217
19.085938,-0.01184433
19.093750,-0.09306261
19.101562,-0.09306261
19.109375,-0.08291032
19.117188,-0.10998308
19.125000,-0.10659898
19.132812,-0.10998308
19.140625,-0.10659898
19.148438,-0.09983080
19.156250,-0.08291032
19.164062,-0.09306261
19.171875,-0.08967851
19.179688,-0.07275804
19.187500,-0.06937394
19.195312,-0.06260575
19.203125,-0.05583756
19.210938,-0.04568528
19.218750,-0.04230118
19.226562,-0.04230118
19.234375,-0.02199662
19.242188,-0.02876481
19.250000,-0.03891709
19.257812,-0.02876481
19.265625,-0.04906937
19.273438,-0.05245347
19.281250,-0.05583756
19.289062,-0.06260575
19.296875,-0.05245347
19.304688,-0.04906937
19.312500,-0.04568528
19.320312,-0.04230118
19.328125,-0.03553299
19.335938,-0.03553299
19.343750,-0.04230118
19.351562,-0.04568528
19.359375,-0.03214890
19.367188,-0.04568528
19.375000,-0.05245347
19.382812,-0.04568528
19.390625,-0.03553299
19.398438,-0.04568528
19.406250,-0.03214890
19.414062,-0.04230118
19.421875,-0.03553299
19.429688,-0.03891709
19.437500,-0.03891709
19.445312,-0.03214890
19.453125,-0.03553299
19.460938,-0.04568528
19.468750,-0.02876481
19.476562,-0.03553299
19.484375,-0.03891709
19.492188,-0.03891709
19.500000,-0.03891709
19.507812,-0.03553299
19.515625,-0.04230118
19.523438,-0.04230118
19.531250,-0.03553299
19.539062,-0.02199662
19.546875,-0.00846024
19.554688,-0.02538071
19.562500,-0.01522843
19.570312,0.01522843
19.578125,0.00846024
19.585938,-0.00846024
19.593750,-0.02538071
19.601562,-0.02876481
19.609375,-0.02876481
19.617188,-0.03553299
19.625000,-0.05583756
19.632812,-0.05583756
19.640625,-0.05583756
19.648438,-0.06260575
19.656250,-0.06260575
19.664062,-0.04906937
19.671875,-0.04230118
19.679688,-0.18104907
19.687500,-0.23857868
19.695312,-0.00507614
19.703125,0.60406091
19.710938,0.92893401
19.718750,0.88155668
19.726562,0.57360406
19.734375,0.05583756
19.742188,-0.10321489
19.750000,-0.08629442
19.757812,-0.08967851
19.765625,-0.10659898
19.773438,-0.11675127
19.781250,-0.10659898
19.789062,-0.10998308
19.796875,-0.09644670
19.804688,-0.10321489
19.812500,-0.09644670
19.820312,-0.08629442
19.828125,-0.08291032
19.835938,-0.07614213
19.843750,-0.06260575
19.851562,-0.05922166
19.859375,-0.05922166
19.867188,-0.04568528
19.875000,-0.04568528
19.882812,-0.04230118
19.890625,-0.03214890
19.898438,-0.03553299
19.906250,-0.03553299
19.914062,-0.04230118
19.921875,-0.04906937
19.929688,-0.06598985
19.937500,-0.05245347
19.945312,-0.05922166
19.953125,-0.04568528
19.960938,-0.04568528
19.968750,-0.04568528
19.976562,-0.03553299
19.984375,-0.04230118
19.992188,-0.03891709
20.000000,-0.04568528
20.007812,-0.05245347
20.015625,-0.04568528
20.023438,-0.04568528
20.031250,-0.05922166
20.039062,-0.05245347
20.046875,-0.04906937
20.054688,-0.04568528
20.062500,-0.05245347
20.070312,-0.04568528
20.078125,-0.03553299
20.085938,-0.04230118
20.093750,-0.03891709
20.101562,-0.04230118
20.109375,-0.04230118
20.117188,-0.03891709
20.125000,-0.03553299
20.132812,-0.03891709
20.140625,-0.03891709
20.148438,-0.04568528
20.156250,-0.04568528
20.164062,-0.03891709
20.171875,-0.04230118
20.179688,-0.04230118
20.187500,-0.04568528
20.195312,-0.02538071
20.203125,-0.02199662
20.210938,-0.01522843
20.218750,-0.00169205
20.226562,0.01522843
20.234375,0.00169205
20.242188,-0.01861252
20.250000,-0.02876481
20.257812,-0.02876481
20.265625,-0.02538071
20.273438,-0.03891709
20.281250,-0.05245347
20.289062,-0.05245347
20.296875,-0.04906937
20.304688,-0.04906937
20.312500,-0.05583756
20.320312,-0.05583756
20.328125,-0.03891709
20.335938,-0.17766497
20.343750,-0.22842640
20.351562,-0.01184433
20.359375,0.55329949
20.367188,0.88494078
20.375000,0.85109983
20.382812,0.66835871
20.390625,0.15397631
20.398438,-0.08967851
20.406250,-0.07614213
20.414062,-0.08291032
20.421875,-0.09644670
20.429688,-0.10321489
20.437500,-0.09983080
20.445312,-0.11336717
20.453125,-0.08629442
20.460938,-0.07952623
20.468750,-0.07614213
20.476562,-0.07952623
20.484375,-0.07275804
20.492188,-0.07275804
20.500000,-0.05922166
20.507812,-0.04906937
20.515625,-0.05245347
20.523438,-0.03214890
20.531250,-0.02876481
20.539062,-0.04230118
20.546875,-0.03553299
20.554688,-0.02876481
20.562500,-0.02538071
20.570312,-0.03553299
20.578125,-0.03553299
20.585938,-0.04568528
20.593750,-0.05245347
20.601562,-0.04568528
20.609375,-0.03214890
20.617188,-0.02199662
20.625000,-0.02199662
20.632812,-0.01861252
20.640625,-0.01861252
20.648438,-0.04568528
20.656250,-0.04568528
20.664062,-0.04230118
20.671875,-0.03553299
20.679688,-0.04230118
20.687500,-0.03891709
20.695312,-0.02876481
20.703125,-0.02876481
20.710938,-0.03891709
20.718750,-0.04568528
20.726562,-0.03891709
20.734375,-0.02538071
20.742188,-0.04230118
20.750000,-0.03891709
20.757812,-0.02199662
20.765625,-0.02876481
20.773438,-0.04230118
20.781250,-0.03553299
20.789062,-0.03891709
20.796875,-0.02538071
20.804688,-0.03214890
20.812500,-0.04568528
20.820312,-0.03891709
20.828125,-0.03553299
20.835938,-0.03891709
20.843750,-0.04230118
20.851562,-0.04568528
20.859375,-0.01522843
20.867188,-0.02199662
20.875000,-0.01861252
20.882812,-0.00507614
20.890625,0.02538071
20.898438,0.00846024
20.906250,-0.01522843
20.914062,-0.02876481
20.921875,-0.02199662
20.929688,-0.02876481
20.937500,-0.02199662
20.945312,-0.03553299
20.953125,-0.05245347
20.960938,-0.05583756
20.968750,-0.05583756
20.976562,-0.06260575
20.984375,-0.04568528
20.992188,-0.03214890
21.000000,-0.21150592
21.007812,-0.24196277
21.015625,0.10321489
21.023438,0.66835871
21.031250,0.92554992
21.039062,0.87140440
21.046875,0.59052453
21.054688,0.02199662
21.062500,-0.13028765
21.070312,-0.09644670
21.078125,-0.07952623
21.085938,-0.10998308
21.093750,-0.10998308
21.101562,-0.10321489
21.109375,-0.11336717
21.117188,-0.09983080
21.125000,-0.09983080
21.132812,-0.08629442
21.140625,-0.08291032
21.148438,-0.07614213
21.156250,-0.07952623
21.164062,-0.06937394
21.171875,-0.05245347
21.179688,-0.04906937
21.187500,-0.04230118
21.195312,-0.04568528
21.203125,-0.03553299
21.210938,-0.03891709
21.218750,-0.04906937
21.226562,-0.04230118
21.234375,-0.06937394
21.242188,-0.05245347
21.250000,-0.05245347
21.257812,-0.04906937
21.265625,-0.04568528
21.273438,-0.04230118
21.281250,-0.03214890
21.289062,-0.02876481
21.296875,-0.02538071
21.304688,-0.03553299
21.312500,-0.04230118
21.320312,-0.03891709
21.328125,-0.05245347
21.335938,-0.04568528
21.343750,-0.05245347
21.351562,-0.03553299
21.359375,-0.04230118
21.367188,-0.04568528
21.375000,-0.04230118
21.382812,-0.03891709
21.390625,-0.04230118
21.398438,-0.03553299
21.406250,-0.04568528
21.414062,-0.03891709
21.421875,-0.04906937
21.429688,-0.04230118
21.437500,-0.04230118
21.445312,-0.03891709
21.453125,-0.03214890
21.460938,-0.04230118
21.468750,-0.03891709
21.476562,-0.04568528
21.484375,-0.04906937
21.492188,-0.05245347
21.500000,-0.05245347
21.507812,-0.02538071
21.515625,-0.02538071
21.523438,-0.02199662
21.531250,-0.00507614
21.539062,0.01522843
21.546875,-0.00507614
21.554688,-0.02876481
21.562500,-0.02199662
21.570312,-0.02199662
21.578125,-0.03891709
21.585938,-0.04568528
21.593750,-0.05922166
21.601562,-0.06937394
21.609375,-0.07614213
21.617188,-0.06937394
21.625000,-0.05583756
21.632812,-0.03891709
21.640625,-0.04906937
21.648438,-0.24534687
21.656250,-0.22504230
21.664062,0.14382403
21.671875,0.70219966
21.679688,0.94923858
21.687500,0.89847716
21.695312,0.63790186
21.703125,0.07275804
21.710938,-0.12690355
21.718750,-0.08629442
21.726562,-0.08629442
21.734375,-0.09644670
21.742188,-0.11336717
21.750000,-0.12013536
21.757812,-0.10998308
21.765625,-0.09983080
21.773438,-0.10998308
21.781250,-0.09983080
21.789062,-0.08967851
21.796875,-0.07275804
21.804688,-0.07614213
21.812500,-0.07614213
21.820312,-0.06260575
21.828125,-0.06260575
21.835938,-0.04568528
21.843750,-0.03891709
21.851562,-0.03891709
21.859375,-0.03891709
21.867188,-0.04230118
21.875000,-0.04906937
21.882812,-0.04230118
21.890625,-0.02876481
21.898438,-0.06260575
21.906250,-0.06260575
21.914062,-0.05922166
21.921875,-0.05245347
21.929688,-0.05245347
21.937500,-0.03214890
21.945312,-0.03891709
21.953125,-0.04568528
21.960938,-0.04230118
21.968750,-0.04230118
21.976562,-0.04906937
21.984375,-0.04568528
21.992188,-0.05245347
22.000000,-0.03891709
22.007812,-0.05245347
22.015625,-0.04568528
22.023438,-0.04230118
22.031250,-0.04906937
22.039062,-0.04230118
22.046875,-0.04230118
22.054688,-0.04230118
22.062500,-0.04568528
22.070312,-0.04568528
22.078125,-0.04230118
22.085938,-0.03214890
22.093750,-0.05583756
22.101562,-0.04230118
22.109375,-0.03553299
22.117188,-0.03891709
22.125000,-0.04568528
22.132812,-0.04906937
22.140625,-0.05245347
22.148438,-0.05583756
22.156250,-0.03553299
22.164062,-0.02538071
22.171875,-0.02199662
22.179688,-0.01184433
22.187500,0.01522843
22.195312,-0.01184433
22.203125,-0.02199662
22.210938,-0.02538071
22.218750,-0.03891709
22.226562,-0.04568528
22.234375,-0.03553299
22.242188,-0.05922166
22.250000,-0.08291032
22.257812,-0.07614213
22.265625,-0.06260575
22.273438,-0.06260575
22.281250,-0.06260575
22.289062,-0.04906937
22.296875,-0.21827411
22.304688,-0.26226734
22.312500,0.07275804
22.320312,0.65820643
22.328125,0.95262267
22.335938,0.88155668
22.343750,0.52284264
22.351562,-0.00507614
22.359375,-0.09644670
22.367188,-0.09306261
22.375000,-0.10998308
22.382812,-0.11336717
22.390625,-0.13028765
22.398438,-0.12690355
22.406250,-0.12013536
22.414062,-0.11336717
22.421875,-0.11336717
22.429688,-0.10998308
22.437500,-0.09306261
22.445312,-0.09306261
22.453125,-0.08291032
22.460938,-0.07275804
22.468750,-0.07952623
22.476562,-0.07275804
22.484375,-0.05245347
22.492188,-0.05245347
22.500000,-0.04568528
22.507812,-0.04906937
22.515625,-0.04230118
22.523438,-0.04568528
22.531250,-0.04230118
22.539062,-0.06598985
22.546875,-0.05583756
22.554688,-0.06598985
22.562500,-0.05922166
22.570312,-0.06598985
22.578125,-0.06260575
22.585938,-0.04230118
22.593750,-0.04906937
22.601562,-0.05245347
22.609375,-0.05583756
22.617188,-0.04906937
22.625000,-0.06598985
22.632812,-0.05922166
22.640625,-0.06260575
22.648438,-0.05583756
22.656250,-0.06260575
22.664062,-0.05583756
22.671875,-0.05922166
22.679688,-0.05922166
22.687500,-0.05245347
22.695312,-0.04568528
22.703125,-0.05245347
22.710938,-0.05245347
22.718750,-0.05245347
22.726562,-0.05245347
22.734375,-0.03891709
22.742188,-0.04906937
22.750000,-0.04906937
22.757812,-0.05245347
22.765625,-0.05245347
22.773438,-0.05245347
22.781250,-0.04906937
22.789062,-0.04906937
22.796875,-0.04906937
22.804688,-0.04568528
22.812500,-0.03553299
22.820312,-0.03214890
22.828125,-0.02876481
22.835938,-0.02199662
22.843750,-0.00846024
22.851562,-0.00507614
22.859375,-0.01861252
22.867188,-0.02876481
22.875000,-0.03214890
22.882812,-0.03891709
22.890625,-0.03891709
22.898438,-0.04906937
22.906250,-0.05922166
22.914062,-0.05245347
22.921875,-0.05245347
22.929688,-0.05583756
22.937500,-0.04906937
22.945312,-0.04906937
22.953125,-0.07275804
22.960938,-0.09983080
22.968750,0.02199662
22.976562,0.32656514
22.984375,0.61082910
22.992188,0.67851100
23.000000,0.55668359
23.007812,0.27241963
23.015625,0.03214890
23.023438,-0.04230118
23.031250,-0.06937394
23.039062,-0.08629442
23.046875,-0.09306261
23.054688,-0.10659898
23.062500,-0.10659898
23.070312,-0.10321489
23.078125,-0.09644670
23.085938,-0.09644670
23.093750,-0.09644670
23.101562,-0.08291032
23.109375,-0.08291032
23.117188,-0.07614213
23.125000,-0.06937394
23.132812,-0.06598985
23.140625,-0.05583756
23.148438,-0.04906937
23.156250,-0.03553299
23.164062,-0.03891709
23.171875,-0.03891709
23.179688,-0.03553299
23.187500,-0.04568528
23.195312,-0.04568528
23.203125,-0.05245347
23.210938,-0.06260575
23.218750,-0.05922166
23.226562,-0.05583756
23.234375,-0.04230118
23.242188,-0.04568528
23.250000,-0.04568528
23.257812,-0.03553299
23.265625,-0.04568528
23.273438,-0.06598985
23.281250,-0.05922166
23.289062,-0.06937394
23.296875,-0.05245347
23.304688,-0.04568528
23.312500,-0.05245347
23.320312,-0.05922166
23.328125,-0.05583756
23.335938,-0.05245347
23.343750,-0.04906937
23.351562,-0.05583756
23.359375,-0.04568528
23.367188,-0.04230118
23.375000,-0.04568528
23.382812,-0.04906937
23.390625,-0.04568528
23.398438,-0.04568528
23.406250,-0.05245347
23.414062,-0.04568528
23.421875,-0.04906937
23.429688,-0.04230118
23.437500,-0.05245347
23.445312,-0.05922166
23.453125,-0.04906937
23.460938,-0.05245347
23.468750,-0.05583756
23.476562,-0.05583756
23.484375,-0.05583756
23.492188,-0.03891709
23.500000,-0.03553299
23.507812,-0.02876481
23.515625,-0.02199662
23.523438,0.00169205
23.531250,0.01184433
23.539062,-0.00846024
23.546875,-0.02199662
23.554688,-0.03553299
23.562500,-0.02876481
23.570312,-0.03553299
23.578125,-0.04230118
23.585938,-0.05583756
23.593750,-0.05583756
23.601562,-0.06260575
23.609375,-0.06260575
23.617188,-0.05922166
23.625000,-0.04906937
23.632812,-0.05922166
23.640625,-0.16751269
23.648438,-0.18781726
23.656250,0.05583756
23.664062,0.52622673
23.671875,0.76649746
23.679688,0.74619289
23.687500,0.53976311
23.695312,0.12013536
23.703125,-0.05922166
23.710938,-0.07275804
23.718750,-0.07614213
23.726562,-0.09644670
23.734375,-0.09983080
23.742188,-0.10659898
23.750000,-0.10321489
23.757812,-0.10321489
23.765625,-0.09644670
23.773438,-0.08967851
23.781250,-0.09306261
23.789062,-0.08291032
23.796875,-0.07275804
23.804688,-0.06937394
23.812500,-0.06598985
23.820312,-0.05583756
23.828125,-0.05245347
23.835938,-0.05583756
23.843750,-0.04568528
23.851562,-0.03891709
23.859375,-0.03553299
23.867188,-0.04568528
23.875000,-0.04568528
23.882812,-0.04230118
23.890625,-0.05922166
23.898438,-0.04568528
23.906250,-0.04906937
23.914062,-0.04230118
23.921875,-0.04230118
23.929688,-0.03214890
23.937500,-0.02538071
23.945312,-0.04568528
23.953125,-0.06260575
23.960938,-0.03891709
23.968750,-0.04906937
23.976562,-0.05245347
23.984375,-0.04906937
23.992188,-0.04906937
24.000000,-0.05583756
24.007812,-0.05922166
24.015625,-0.05922166
24.023438,-0.05583756
24.031250,-0.05583756
24.039062,-0.05922166
24.046875,-0.04230118
24.054688,-0.05245347
24.062500,-0.05245347
24.070312,-0.06260575
24.078125,-0.05583756
24.085938,-0.06260575
24.093750,-0.05922166
24.101562,-0.05922166
24.109375,-0.05922166
24.117188,-0.06598985
24.125000,-0.06260575
24.132812,-0.04230118
24.140625,-0.05245347
24.148438,-0.05583756
24.156250,-0.03891709
24.164062,-0.03214890
24.171875,-0.03891709
24.179688,-0.02199662
24.187500,0.00846024
24.195312,-0.02538071
24.203125,-0.04230118
24.210938,-0.05922166
24.218750,-0.02876481
24.226562,-0.03553299
24.234375,-0.05245347
24.242188,-0.05245347
24.250000,-0.08291032
24.257812,-0.07952623
24.265625,-0.06260575
24.273438,-0.07614213
24.281250,-0.05583756
24.289062,-0.06937394
24.296875,-0.22504230
24.304688,-0.23857868
24.312500,0.15059222
24.320312,0.72250423
24.328125,0.94585448
24.335938,0.86802030
24.343750,0.51269036
24.351562,-0.04230118
24.359375,-0.14043993
24.367188,-0.10659898
24.375000,-0.11336717
24.382812,-0.11675127
24.390625,-0.12351946
24.398438,-0.10659898
24.406250,-0.09983080
24.414062,-0.09983080
24.421875,-0.08967851
24.429688,-0.08629442
24.437500,-0.08967851
24.445312,-0.08629442
24.453125,-0.07614213
24.460938,-0.05922166
24.468750,-0.05922166
24.476562,-0.05922166
24.484375,-0.04906937
24.492188,-0.05245347
24.500000,-0.03891709
24.507812,-0.03214890
24.515625,-0.03553299
24.523438,-0.03891709
24.531250,-0.03891709
24.539062,-0.05245347
24.546875,-0.04906937
24.554688,-0.05583756
24.562500,-0.06598985
24.570312,-0.03553299
24.578125,-0.02538071
24.585938,-0.02538071
24.593750,-0.04230118
24.601562,-0.04230118
24.609375,-0.04568528
24.617188,-0.04906937
24.625000,-0.05922166
24.632812,-0.05922166
24.640625,-0.06260575
24.648438,-0.06260575
24.656250,-0.04906937
24.664062,-0.04568528
24.671875,-0.05922166
24.679688,-0.05245347
24.687500,-0.04906937
24.695312,-0.05922166
24.703125,-0.04568528
24.710938,-0.04230118
24.718750,-0.05583756
24.726562,-0.05583756
24.734375,-0.04230118
24.742188,-0.04568528
24.750000,-0.04568528
24.757812,-0.05583756
24.765625,-0.04906937
24.773438,-0.04906937
24.781250,-0.04906937
24.789062,-0.04906937
24.796875,-0.04230118
24.804688,-0.03214890
24.812500,-0.02538071
24.820312,-0.01522843
24.828125,-0.00507614
24.835938,0.01861252
24.843750,-0.00846024
24.851562,-0.03214890
24.859375,-0.03891709
24.867188,-0.03891709
24.875000,-0.04906937
24.882812,-0.04230118
24.890625,-0.05245347
24.898438,-0.07275804
24.906250,-0.08291032
24.914062,-0.05922166
24.921875,-0.04906937
24.929688,-0.04906937
24.937500,-0.06937394
24.945312,-0.25888325
24.953125,-0.18781726
24.960938,0.23857868
24.968750,0.76649746
24.976562,0.96277496
24.984375,0.88832487
24.992188,0.45177665
25.000000,-0.04906937
25.007812,-0.11336717
25.015625,-0.07952623
25.023438,-0.09306261
25.031250,-0.11336717
25.039062,-0.11675127
25.046875,-0.11336717
25.054688,-0.10659898
25.062500,-0.10659898
25.070312,-0.10321489
25.078125,-0.08967851
25.085938,-0.08967851
25.093750,-0.08629442
25.101562,-0.07614213
25.109375,-0.06598985
25.117188,-0.06260575
25.125000,-0.05245347
25.132812,-0.04230118
25.140625,-0.03214890
25.148438,-0.02876481
25.156250,-0.01861252
25.164062,-0.03553299
25.171875,-0.03553299
25.179688,-0.03891709
25.187500,-0.03553299
25.195312,-0.04906937
25.203125,-0.04906937
25.210938,-0.04906937
25.218750,-0.03891709
25.226562,-0.04230118
25.234375,-0.03214890
25.242188,-0.03553299
25.250000,-0.04906937
25.257812,-0.03891709
25.265625,-0.03553299
25.273438,-0.04568528
25.281250,-0.04906937
25.289062,-0.04906937
25.296875,-0.05583756
25.304688,-0.03553299
25.312500,-0.04906937
25.320312,-0.03891709
25.328125,-0.03553299
25.335938,-0.04230118
25.343750,-0.05245347
25.351562,-0.03553299
25.359375,-0.02876481
25.367188,-0.03891709
25.375000,-0.04568528
25.382812,-0.03891709
25.390625,-0.03214890
25.398438,-0.03214890
25.406250,-0.04230118
25.414062,-0.05245347
25.421875,-0.03553299
25.429688,-0.03891709
25.437500,-0.03214890
25.445312,-0.01522843
25.453125,-0.00169205
25.460938,-0.03214890
25.468750,0.00507614
25.476562,0.01522843
25.484375,-0.00169205
25.492188,-0.02199662
25.500000,-0.03891709
25.507812,-0.02199662
25.515625,-0.02876481
25.523438,-0.05245347
25.531250,-0.05922166
25.539062,-0.06598985
25.546875,-0.05922166
25.554688,-0.06260575
25.562500,-0.06260575
25.570312,-0.04568528
25.578125,-0.07952623
25.585938,-0.24196277
25.593750,-0.19120135
25.601562,0.24873096
25.609375,0.80372250
25.617188,0.95939086
25.625000,0.84771574
25.632812,0.38747885
25.640625,-0.05583756
25.648438,-0.08967851
25.656250,-0.07614213
25.664062,-0.09644670
25.671875,-0.11336717
25.679688,-0.11336717
25.687500,-0.12351946
25.695312,-0.10659898
25.703125,-0.10321489
25.710938,-0.10659898
25.718750,-0.08967851
25.726562,-0.08629442
25.734375,-0.07614213
25.742188,-0.07614213
25.750000,-0.05922166
25.757812,-0.05922166
25.765625,-0.04906937
25.773438,-0.04568528
25.781250,-0.03553299
25.789062,-0.03891709
25.796875,-0.03553299
25.804688,-0.02876481
25.812500,-0.02876481
25.820312,-0.03891709
25.828125,-0.03553299
25.835938,-0.05583756
25.843750,-0.05922166
25.851562,-0.06260575
25.859375,-0.05245347
25.867188,-0.03891709
25.875000,-0.04230118
25.882812,-0.04230118
25.890625,-0.04568528
25.898438,-0.04568528
25.906250,-0.05583756
25.914062,-0.06260575
25.921875,-0.05245347
25.929688,-0.05583756
25.937500,-0.05922166
25.945312,-0.05245347
25.953125,-0.05245347
25.960938,-0.05245347
25.968750,-0.05583756
25.976562,-0.06260575
25.984375,-0.05245347
25.992188,-0.04906937
26.000000,-0.05245347
26.007812,-0.04906937
26.015625,-0.04906937
26.023438,-0.05922166
26.031250,-0.06260575
26.039062,-0.05583756
26.046875,-0.04906937
26.054688,-0.05922166
26.062500,-0.05922166
26.070312,-0.05583756
26.078125,-0.05245347
26.085938,-0.03553299
26.093750,-0.02876481
26.101562,-0.04230118
26.109375,-0.01184433
26.117188,-0.00169205
26.125000,-0.01861252
26.132812,-0.02876481
26.140625,-0.04230118
26.148438,-0.05583756
26.156250,-0.04906937
26.164062,-0.05583756
26.171875,-0.07275804
26.179688,-0.06937394
26.187500,-0.07614213
26.195312,-0.06598985
26.203125,-0.06598985
26.210938,-0.07275804
26.218750,-0.06598985
26.226562,-0.23857868
26.234375,-0.24196277
26.242188,0.05583756
26.250000,0.63451777
26.257812,0.91878173
26.265625,0.86125212
26.273438,0.53637902
26.281250,0.01861252
26.289062,-0.12013536
26.296875,-0.10321489
26.304688,-0.10659898
26.312500,-0.11675127
26.320312,-0.13705584
26.328125,-0.13028765
26.335938,-0.11675127
26.343750,-0.11675127
26.351562,-0.10998308
26.359375,-0.09306261
26.367188,-0.09306261
26.375000,-0.08967851
26.382812,-0.08967851
26.390625,-0.06937394
26.398438,-0.06937394
26.406250,-0.06260575
26.414062,-0.06260575
26.421875,-0.04906937
26.429688,-0.04906937
26.437500,-0.04568528
26.445312,-0.04568528
26.453125,-0.04568528
26.460938,-0.03891709
26.468750,-0.04906937
26.476562,-0.05583756
26.484375,-0.04906937
26.492188,-0.05922166
26.500000,-0.04568528
26.507812,-0.04568528
26.515625,-0.04568528
26.523438,-0.03214890
26.531250,-0.02876481
26.539062,-0.03891709
26.546875,-0.04568528
26.554688,-0.05922166
26.562500,-0.06260575
26.570312,-0.05922166
26.578125,-0.06260575
26.585938,-0.05922166
26.593750,-0.05245347
26.601562,-0.05922166
26.609375,-0.05583756
26.617188,-0.06937394
26.625000,-0.05922166
26.632812,-0.04568528
26.640625,-0.04568528
26.648438,-0.05583756
26.656250,-0.06598985
26.664062,-0.06260575
26.671875,-0.05583756
26.679688,-0.06598985
26.687500,-0.04906937
26.695312,-0.04906937
26.703125,-0.05583756
26.710938,-0.04568528
26.718750,-0.04230118
26.726562,-0.03214890
26.734375,-0.03214890
26.742188,-0.01861252
26.750000,0.00507614
26.757812,-0.00846024
26.765625,-0.03553299
26.773438,-0.04568528
26.781250,-0.04230118
26.789062,-0.05245347
26.796875,-0.06260575
26.804688,-0.06937394
26.812500,-0.08291032
26.820312,-0.06937394
26.828125,-0.06937394
26.835938,-0.07275804
26.843750,-0.06598985
26.851562,-0.05922166
26.859375,-0.21827411
26.867188,-0.26226734
26.875000,0.06598985
26.882812,0.65820643
26.890625,0.91539763
26.898438,0.84771574
26.906250,0.50930626
26.914062,-0.00169205
26.921875,-0.12690355
26.929688,-0.09983080
26.937500,-0.10659898
26.945312,-0.10998308
26.953125,-0.11336717
26.960938,-0.12690355
26.968750,-0.12690355
26.976562,-0.11675127
26.984375,-0.10998308
26.992188,-0.09983080
27.000000,-0.10321489
27.007812,-0.12351946
27.015625,-0.08629442
27.023438,-0.07952623
27.031250,-0.07614213
27.039062,-0.07275804
27.046875,-0.05922166
27.054688,-0.05583756
27.062500,-0.06598985
27.070312,-0.06260575
27.078125,-0.05922166
27.085938,-0.06260575
27.093750,-0.06937394
27.101562,-0.06598985
27.109375,-0.07275804
27.117188,-0.07275804
27.125000,-0.07275804
27.132812,-0.05583756
27.140625,-0.05245347
27.148438,-0.04906937
27.156250,-0.05583756
27.164062,-0.04906937
27.171875,-0.05922166
27.179688,-0.06937394
27.187500,-0.07275804
27.195312,-0.05583756
27.203125,-0.07614213
27.210938,-0.06937394
27.218750,-0.06598985
27.226562,-0.05922166
27.234375,-0.06260575
27.242188,-0.07275804
27.250000,-0.06260575
27.257812,-0.05922166
27.265625,-0.06598985
27.273438,-0.06937394
27.281250,-0.06260575
27.289062,-0.05922166
27.296875,-0.06937394
27.304688,-0.06937394
27.312500,-0.06260575
27.320312,-0.05245347
27.328125,-0.06260575
27.335938,-0.07275804
27.343750,-0.05245347
27.351562,-0.03891709
27.359375,-0.04230118
27.367188,-0.04906937
27.375000,-0.00169205
27.382812,-0.00846024
27.390625,-0.03891709
27.398438,-0.04568528
27.406250,-0.03891709
27.414062,-0.04568528
27.421875,-0.05583756
27.429688,-0.06937394
27.437500,-0.08291032
27.445312,-0.07952623
27.453125,-0.08291032
27.460938,-0.07952623
27.468750,-0.07952623
27.476562,-0.07275804
27.484375,-0.08967851
27.492188,-0.25888325
27.500000,-0.25549915
27.507812,0.07614213
27.515625,0.68189509
27.523438,0.95600677
27.531250,0.90862944
27.539062,0.57021997
27.546875,0.01522843
27.554688,-0.10998308
27.562500,-0.09306261
27.570312,-0.09306261
27.578125,-0.10998308
27.585938,-0.12013536
27.593750,-0.12013536
27.601562,-0.12690355
27.609375,-0.10998308
27.617188,-0.10659898
27.625000,-0.10659898
27.632812,-0.09306261
27.640625,-0.08629442
27.648438,-0.08629442
27.656250,-0.07275804
27.664062,-0.06260575
27.671875,-0.06598985
27.679688,-0.04906937
27.687500,-0.04906937
27.695312,-0.04568528
27.703125,-0.03214890
27.710938,-0.05245347
27.718750,-0.05245347
27.726562,-0.04906937
27.734375,-0.06598985
27.742188,-0.06260575
27.750000,-0.06260575
27.757812,-0.06260575
27.765625,-0.05245347
27.773438,-0.04230118
27.781250,-0.05245347
27.789062,-0.04230118
27.796875,-0.04568528
27.804688,-0.04906937
27.812500,-0.05583756
27.820312,-0.05583756
27.828125,-0.05245347
27.835938,-0.05922166
27.843750,-0.04230118
27.851562,-0.05245347
27.859375,-0.05583756
27.867188,-0.05245347
27.875000,-0.04906937
27.882812,-0.04906937
27.890625,-0.05245347
27.898438,-0.05922166
27.906250,-0.04906937
27.914062,-0.04568528
27.921875,-0.04230118
27.929688,-0.04568528
27.937500,-0.04906937
27.945312,-0.04230118
27.953125,-0.05583756
27.960938,-0.04906937
27.968750,-0.02876481
27.976562,-0.03891709
27.984375,-0.03553299
27.992188,-0.02199662
28.000000,0.02199662
28.007812,-0.00507614
28.015625,-0.03214890
28.023438,-0.05245347
28.031250,-0.03891709
28.039062,-0.04230118
28.046875,-0.06260575
28.054688,-0.06598985
28.062500,-0.07952623
28.070312,-0.07614213
28.078125,-0.07614213
28.085938,-0.07614213
28.093750,-0.06937394
28.101562,-0.06598985
28.109375,-0.23181049
28.117188,-0.27918782
28.125000,0.00507614
28.132812,0.60406091
28.140625,0.93570220
28.148438,0.92893401
28.156250,0.67851100
28.164062,0.12690355
28.171875,-0.09644670
28.179688,-0.09644670
28.187500,-0.10998308
28.195312,-0.12351946
28.203125,-0.12013536
28.210938,-0.12351946
28.218750,-0.11675127
28.226562,-0.11336717
28.234375,-0.10321489
28.242188,-0.10321489
28.250000,-0.10998308
28.257812,-0.09983080
28.265625,-0.08291032
28.273438,-0.07614213
28.281250,-0.06937394
28.289062,-0.05583756
28.296875,-0.04906937
28.304688,-0.05245347
28.312500,-0.04568528
28.320312,-0.03553299
28.328125,-0.03891709
28.335938,-0.04230118
28.343750,-0.04906937
28.351562,-0.05245347
28.359375,-0.05583756
28.367188,-0.05922166
28.375000,-0.06598985
28.382812,-0.04906937
28.390625,-0.05583756
28.398438,-0.04568528
28.406250,-0.04906937
28.414062,-0.05245347
28.421875,-0.04906937
28.429688,-0.05583756
28.437500,-0.05583756
28.445312,-0.05245347
28.453125,-0.05245347
28.460938,-0.06260575
28.468750,-0.06260575
28.476562,-0.05583756
28.484375,-0.04906937
28.492188,-0.04568528
28.500000,-0.04906937
28.507812,-0.04568528
28.515625,-0.04230118
28.523438,-0.05245347
28.531250,-0.06598985
28.539062,-0.03891709
28.546875,-0.04568528
28.554688,-0.05245347
28.562500,-0.04568528
28.570312,-0.05583756
28.578125,-0.05245347
28.585938,-0.05583756
28.593750,-0.03214890
28.601562,-0.02199662
28.609375,-0.02876481
28.617188,-0.02538071
28.625000,0.00507614
28.632812,0.01861252
28.640625,-0.02538071
28.648438,-0.04230118
28.656250,-0.03891709
28.664062,-0.03891709
28.671875,-0.04906937
28.679688,-0.05922166
28.687500,-0.07275804
28.695312,-0.07952623
28.703125,-0.07614213
28.710938,-0.07614213
28.718750,-0.06598985
28.726562,-0.05583756
28.734375,-0.07952623
28.742188,-0.27241963
28.750000,-0.24196277
28.757812,0.18443316
28.765625,0.78680203
28.773438,0.97292724
28.781250,0.85786802
28.789062,0.45177665
28.796875,-0.01861252
28.804688,-0.10998308
28.812500,-0.09644670
28.820312,-0.09983080
28.828125,-0.12013536
28.835938,-0.12351946
28.843750,-0.13028765
28.851562,-0.11675127
28.859375,-0.10998308
28.867188,-0.10659898
28.875000,-0.10321489
28.882812,-0.10998308
28.890625,-0.08629442
28.898438,-0.08291032
28.906250,-0.07614213
28.914062,-0.06260575
28.921875,-0.06260575
28.929688,-0.05922166
28.937500,-0.06260575
28.945312,-0.04568528
28.953125,-0.03553299
28.960938,-0.05583756
28.968750,-0.05245347
28.976562,-0.05245347
28.984375,-0.04568528
28.992188,-0.06260575
29.000000,-0.05583756
29.007812,-0.06260575
29.015625,-0.03553299
29.023438,-0.03891709
29.031250,-0.04568528
29.039062,-0.03891709
29.046875,-0.04230118
29.054688,-0.04568528
29.062500,-0.05922166
29.070312,-0.05583756
29.078125,-0.06260575
29.085938,-0.06598985
29.093750,-0.05922166
29.101562,-0.05583756
29.109375,-0.04906937
29.117188,-0.05245347
29.125000,-0.04906937
29.132812,-0.05583756
29.140625,-0.04906937
29.148438,-0.04906937
29.156250,-0.05245347
29.164062,-0.04906937
29.171875,-0.04906937
29.179688,-0.05583756
29.187500,-0.04568528
29.195312,-0.05245347
29.203125,-0.06260575
29.210938,-0.05583756
29.218750,-0.05245347
29.226562,-0.04906937
29.234375,-0.03214890
29.242188,-0.04230118
29.250000,-0.01861252
29.257812,0.01522843
29.265625,-0.01184433
29.273438,-0.03553299
29.281250,-0.05583756
29.289062,-0.05583756
29.296875,-0.05583756
29.304688,-0.04568528
29.312500,-0.06937394
29.320312,-0.07275804
29.328125,-0.07952623
29.335938,-0.07275804
29.343750,-0.07952623
29.351562,-0.07614213
29.359375,-0.09983080
29.367188,-0.28934010
29.375000,-0.19458545
29.382812,0.23181049
29.390625,0.78680203
29.398438,0.93570220
29.406250,0.87140440
29.414062,0.39763113
29.421875,-0.09306261
29.429688,-0.13028765
29.437500,-0.10998308
29.445312,-0.12013536
29.453125,-0.12351946
29.460938,-0.12690355
29.468750,-0.12013536
29.476562,-0.11336717
29.484375,-0.10659898
29.492188,-0.12690355
29.500000,-0.09644670
29.507812,-0.08967851
29.515625,-0.08291032
29.523438,-0.07952623
29.531250,-0.08967851
29.539062,-0.08291032
29.546875,-0.07614213
29.554688,-0.07275804
29.562500,-0.06260575
29.570312,-0.06260575
29.578125,-0.05245347
29.585938,-0.05922166
29.593750,-0.05922166
29.601562,-0.06260575
29.609375,-0.07614213
29.617188,-0.07952623
29.625000,-0.06260575
29.632812,-0.07275804
29.640625,-0.07952623
29.648438,-0.04568528
29.656250,-0.03214890
29.664062,-0.06260575
29.671875,-0.04568528
29.679688,-0.03891709
29.687500,-0.05583756
29.695312,-0.05245347
29.703125,-0.06260575
29.710938,-0.05583756
29.718750,-0.05245347
29.726562,-0.06260575
29.734375,-0.05245347
29.742188,-0.05922166
29.750000,-0.05245347
29.757812,-0.06260575
29.765625,-0.05245347
29.773438,-0.05245347
29.781250,-0.04906937
29.789062,-0.05922166
29.796875,-0.06260575
29.804688,-0.05922166
29.812500,-0.05583756
29.820312,-0.04906937
29.828125,-0.05245347
29.835938,-0.04230118
29.843750,-0.04230118
29.851562,-0.03891709
29.859375,-0.03891709
29.867188,-0.00846024
29.875000,0.00169205
29.882812,-0.01522843
29.890625,-0.02876481
29.898438,-0.03553299
29.906250,-0.04568528
29.914062,-0.05922166
29.921875,-0.04568528
29.929688,-0.06598985
29.937500,-0.07614213
29.945312,-0.06937394
29.953125,-0.08629442
29.960938,-0.05245347
29.968750,-0.05922166
29.976562,-0.09644670
29.984375,-0.28257191
29.992188,-0.19120135
