time,amplitude,sr,128.0
0.000000,-0.32268371
0.007812,-0.31629393
0.015625,-0.34824281
0.023438,-0.28434505
0.031250,-0.17571885
0.039062,-0.09265176
0.046875,-0.08626198
0.054688,-0.07987220
0.062500,-0.08626198
0.070312,-0.07987220
0.078125,-0.07987220
0.085938,-0.07348243
0.093750,-0.07348243
0.101562,-0.07348243
0.109375,-0.06070288
0.117188,-0.06709265
0.125000,-0.06070288
0.132812,-0.06070288
0.140625,-0.06070288
0.148438,-0.05431310
0.156250,-0.06070288
0.164062,-0.03514377
0.171875,-0.02875399
0.179688,-0.03514377
0.187500,-0.02875399
0.195312,-0.02875399
0.203125,-0.02875399
0.210938,-0.01597444
0.218750,-0.00319489
0.226562,0.00319489
0.234375,0.00958466
0.242188,0.01597444
0.250000,0.04153355
0.257812,0.07987220
0.265625,0.08626198
0.273438,0.10543131
0.281250,0.12460064
0.289062,0.15015974
0.296875,0.17571885
0.304688,0.18210863
0.312500,0.19488818
0.320312,0.19488818
0.328125,0.18210863
0.335938,0.16293930
0.343750,0.11821086
0.351562,0.07987220
0.359375,0.04153355
0.367188,-0.01597444
0.375000,-0.03514377
0.382812,-0.07348243
0.390625,-0.09265176
0.398438,-0.11821086
0.406250,-0.10543131
0.414062,-0.09904153
0.421875,-0.11821086
0.429688,-0.12460064
0.437500,-0.12460064
0.445312,-0.11821086
0.453125,-0.13099042
0.460938,-0.12460064
0.468750,-0.11182109
0.476562,-0.11821086
0.484375,-0.11182109
0.492188,-0.11182109
0.500000,-0.10543131
0.507812,-0.09265176
0.515625,-0.11821086
0.523438,-0.09904153
0.531250,-0.08626198
0.539062,-0.08626198
0.546875,-0.07987220
0.554688,-0.07348243
0.562500,-0.07987220
0.570312,-0.08626198
0.578125,-0.09265176
0.585938,-0.07348243
0.593750,-0.08626198
0.601562,-0.08626198
0.609375,-0.07987220
0.617188,-0.08626198
0.625000,-0.08626198
0.632812,-0.09265176
0.640625,-0.08626198
0.648438,-0.08626198
0.656250,-0.09265176
0.664062,-0.08626198
0.671875,-0.09265176
0.679688,-0.08626198
0.687500,-0.07987220
0.695312,-0.09265176
0.703125,-0.09904153
0.710938,-0.08626198
0.718750,-0.09904153
0.726562,-0.09904153
0.734375,-0.09265176
0.742188,-0.08626198
0.750000,-0.09265176
0.757812,-0.09265176
0.765625,-0.09904153
0.773438,-0.07987220
0.781250,-0.09265176
0.789062,-0.07987220
0.796875,-0.08626198
0.804688,-0.08626198
0.812500,-0.08626198
0.820312,-0.08626198
0.828125,-0.09265176
0.835938,-0.08626198
0.843750,-0.08626198
0.851562,-0.07987220
0.859375,-0.07987220
0.867188,-0.09265176
0.875000,-0.07987220
0.882812,-0.07987220
0.890625,-0.09265176
0.898438,-0.08626198
0.906250,-0.07987220
0.914062,-0.07987220
0.921875,-0.07348243
0.929688,-0.07987220
0.937500,-0.08626198
0.945312,-0.07348243
0.953125,-0.08626198
0.960938,-0.07348243
0.968750,-0.07348243
0.976562,-0.08626198
0.984375,-0.07348243
0.992188,-0.08626198
1.000000,-0.06709265
1.007812,-0.06709265
1.015625,-0.07987220
1.023438,-0.07987220
1.031250,-0.07348243
1.039062,-0.07348243
1.046875,-0.07348243
1.054688,-0.07987220
1.062500,-0.06709265
1.070312,-0.06709265
1.078125,-0.07987220
1.085938,-0.07987220
1.093750,-0.04792332
1.101562,-0.05431310
1.109375,-0.06070288
1.117188,-0.06709265
1.125000,-0.06070288
1.132812,-0.06070288
1.140625,-0.06709265
1.148438,-0.06070288
1.156250,-0.06070288
1.164062,-0.06070288
1.171875,-0.05431310
1.179688,-0.06709265
1.187500,-0.06709265
1.195312,-0.06709265
1.203125,-0.07348243
1.210938,-0.06709265
1.218750,-0.06709265
1.226562,-0.06709265
1.234375,-0.05431310
1.242188,-0.08626198
1.250000,-0.02875399
1.257812,0.11182109
1.265625,0.45047923
1.273438,0.84025559
1.281250,0.90415335
1.289062,0.62300319
1.296875,0.21405751
1.304688,-0.19488818
1.312500,-0.34824281
1.320312,-0.32907348
1.328125,-0.35463259
1.335938,-0.36741214
1.343750,-0.31629393
1.351562,-0.22683706
1.359375,-0.11182109
1.367188,-0.09904153
1.375000,-0.09904153
1.382812,-0.09904153
1.390625,-0.10543131
1.398438,-0.07348243
1.406250,-0.09265176
1.414062,-0.09265176
1.421875,-0.07348243
1.429688,-0.07987220
1.437500,-0.07348243
1.445312,-0.06709265
1.453125,-0.07348243
1.460938,-0.07348243
1.468750,-0.06070288
1.476562,-0.06070288
1.484375,-0.04792332
1.492188,-0.05431310
1.500000,-0.04153355
1.507812,-0.04153355
1.515625,-0.04153355
1.523438,-0.04153355
1.531250,-0.02875399
1.539062,-0.02236422
1.546875,-0.02236422
1.554688,-0.00958466
1.562500,0.00958466
1.570312,0.01597444
1.578125,0.02875399
1.585938,0.05431310
1.593750,0.06070288
1.601562,0.11182109
1.609375,0.13099042
1.617188,0.13738019
1.625000,0.15654952
1.632812,0.17571885
1.640625,0.16932907
1.648438,0.16293930
1.656250,0.15654952
1.664062,0.11821086
1.671875,0.08626198
1.679688,0.03514377
1.687500,0.00958466
1.695312,-0.03514377
1.703125,-0.06070288
1.710938,-0.07987220
1.718750,-0.08626198
1.726562,-0.10543131
1.734375,-0.10543131
1.742188,-0.10543131
1.750000,-0.11182109
1.757812,-0.10543131
1.765625,-0.11821086
1.773438,-0.11821086
1.781250,-0.11182109
1.789062,-0.10543131
1.796875,-0.09904153
1.804688,-0.09904153
1.812500,-0.10543131
1.820312,-0.08626198
1.828125,-0.09904153
1.835938,-0.07987220
1.843750,-0.07987220
1.851562,-0.07348243
1.859375,-0.07348243
1.867188,-0.08626198
1.875000,-0.06709265
1.882812,-0.07348243
1.890625,-0.07987220
1.898438,-0.07987220
1.906250,-0.06709265
1.914062,-0.07348243
1.921875,-0.06709265
1.929688,-0.07987220
1.937500,-0.06709265
1.945312,-0.06709265
1.953125,-0.07987220
1.960938,-0.07987220
1.968750,-0.06709265
1.976562,-0.07348243
1.984375,-0.07348243
1.992188,-0.07987220
2.000000,-0.07348243
2.007812,-0.07348243
2.015625,-0.07987220
2.023438,-0.07348243
2.031250,-0.07348243
2.039062,-0.07987220
2.046875,-0.07348243
2.054688,-0.07987220
2.062500,-0.06070288
2.070312,-0.07348243
2.078125,-0.07348243
2.085938,-0.06709265
2.093750,-0.08626198
2.101562,-0.07348243
2.109375,-0.06709265
2.117188,-0.06709265
2.125000,-0.07348243
2.132812,-0.07348243
2.140625,-0.07348243
2.148438,-0.06709265
2.156250,-0.06709265
2.164062,-0.08626198
2.171875,-0.05431310
2.179688,-0.05431310
2.187500,-0.05431310
2.195312,-0.06709265
2.203125,-0.06709265
2.210938,-0.06070288
2.218750,-0.05431310
2.226562,-0.06709265
2.234375,-0.06070288
2.242188,-0.06070288
2.250000,-0.06070288
2.257812,-0.05431310
2.265625,-0.06709265
2.273438,-0.05431310
2.281250,-0.05431310
2.289062,-0.06070288
2.296875,-0.04792332
2.304688,-0.05431310
2.312500,-0.05431310
2.320312,-0.05431310
2.328125,-0.05431310
2.335938,-0.05431310
2.343750,-0.04792332
2.351562,-0.05431310
2.359375,-0.04792332
2.367188,-0.04792332
2.375000,-0.04153355
2.382812,-0.04153355
2.390625,-0.04792332
2.398438,-0.04792332
2.406250,-0.01597444
2.414062,-0.01597444
2.421875,-0.04153355
2.429688,-0.03514377
2.437500,-0.04153355
2.445312,-0.03514377
2.453125,-0.04792332
2.460938,-0.03514377
2.468750,-0.02875399
2.476562,-0.04153355
2.484375,-0.03514377
2.492188,-0.03514377
2.500000,-0.04153355
2.507812,-0.05431310
2.515625,-0.06709265
2.523438,-0.04792332
2.531250,-0.02875399
2.539062,-0.02875399
2.546875,-0.02875399
2.554688,-0.02875399
2.562500,-0.04792332
2.570312,0.04153355
2.578125,0.22683706
2.585938,0.62939297
2.593750,0.86581470
2.601562,0.83386581
2.609375,0.50159744
2.617188,0.09265176
2.625000,-0.31629393
2.632812,-0.29073482
2.640625,-0.27795527
2.648438,-0.28434505
2.656250,-0.29712460
2.664062,-0.25239617
2.671875,-0.16932907
2.679688,-0.07348243
2.687500,-0.06070288
2.695312,-0.06709265
2.703125,-0.07348243
2.710938,-0.06070288
2.718750,-0.05431310
2.726562,-0.04792332
2.734375,-0.06070288
2.742188,-0.04792332
2.750000,-0.04792332
2.757812,-0.04792332
2.765625,-0.04792332
2.773438,-0.04153355
2.781250,-0.03514377
2.789062,-0.03514377
2.796875,-0.03514377
2.804688,-0.02875399
2.812500,-0.03514377
2.820312,-0.01597444
2.828125,-0.02236422
2.835938,-0.00958466
2.843750,-0.00958466
2.851562,-0.00319489
2.859375,0.00958466
2.867188,0.02236422
2.875000,0.02236422
2.882812,0.04153355
2.890625,0.05431310
2.898438,0.07348243
2.906250,0.09904153
2.914062,0.11821086
2.921875,0.14376997
2.929688,0.16293930
2.937500,0.17571885
2.945312,0.19488818
2.953125,0.19488818
2.960938,0.20766773
2.968750,0.18849840
2.976562,0.17571885
2.984375,0.14376997
2.992188,0.11182109
3.000000,0.04792332
3.007812,0.02236422
3.015625,-0.01597444
3.023438,-0.03514377
3.031250,-0.04792332
3.039062,-0.07348243
3.046875,-0.08626198
3.054688,-0.08626198
3.062500,-0.08626198
3.070312,-0.09265176
3.078125,-0.09904153
3.085938,-0.09904153
3.093750,-0.08626198
3.101562,-0.09265176
3.109375,-0.08626198
3.117188,-0.08626198
3.125000,-0.09265176
3.132812,-0.07348243
3.140625,-0.08626198
3.148438,-0.07348243
3.156250,-0.06070288
3.164062,-0.06070288
3.171875,-0.05431310
3.179688,-0.05431310
3.187500,-0.04792332
3.195312,-0.05431310
3.203125,-0.05431310
3.210938,-0.04792332
3.218750,-0.04792332
3.226562,-0.04153355
3.234375,-0.06070288
3.242188,-0.04153355
3.250000,-0.04792332
3.257812,-0.04153355
3.265625,-0.05431310
3.273438,-0.05431310
3.281250,-0.05431310
3.289062,-0.04792332
3.296875,-0.05431310
3.304688,-0.06070288
3.312500,-0.06070288
3.320312,-0.06709265
3.328125,-0.05431310
3.335938,-0.06070288
3.343750,-0.05431310
3.351562,-0.06070288
3.359375,-0.06709265
3.367188,-0.05431310
3.375000,-0.05431310
3.382812,-0.04792332
3.390625,-0.06709265
3.398438,-0.06709265
3.406250,-0.06070288
3.414062,-0.05431310
3.421875,-0.06070288
3.429688,-0.06070288
3.437500,-0.06709265
3.445312,-0.05431310
3.453125,-0.06070288
3.460938,-0.06070288
3.468750,-0.06709265
3.476562,-0.05431310
3.484375,-0.05431310
3.492188,-0.05431310
3.500000,-0.06709265
3.507812,-0.05431310
3.515625,-0.06070288
3.523438,-0.07348243
3.531250,-0.04792332
3.539062,-0.05431310
3.546875,-0.06070288
3.554688,-0.04792332
3.562500,-0.04792332
3.570312,-0.04792332
3.578125,-0.06070288
3.585938,-0.05431310
3.593750,-0.05431310
3.601562,-0.06070288
3.609375,-0.05431310
3.617188,-0.05431310
3.625000,-0.06070288
3.632812,-0.05431310
3.640625,-0.05431310
3.648438,-0.05431310
3.656250,-0.04153355
3.664062,-0.05431310
3.671875,-0.04792332
3.679688,-0.05431310
3.687500,-0.04153355
3.695312,-0.04792332
3.703125,-0.04792332
3.710938,-0.03514377
3.718750,-0.04153355
3.726562,-0.05431310
3.734375,-0.02236422
3.742188,-0.04792332
3.750000,-0.05431310
3.757812,-0.05431310
3.765625,-0.04153355
3.773438,-0.03514377
3.781250,-0.04792332
3.789062,-0.04792332
3.796875,-0.03514377
3.804688,-0.04792332
3.812500,-0.06070288
3.820312,-0.05431310
3.828125,-0.06070288
3.835938,-0.05431310
3.843750,-0.04792332
3.851562,-0.06709265
3.859375,-0.02875399
3.867188,-0.04792332
3.875000,0.02236422
3.882812,0.21405751
3.890625,0.61980831
3.898438,0.91054313
3.906250,0.84664537
3.914062,0.43769968
3.921875,0.02875399
3.929688,-0.36741214
3.937500,-0.31629393
3.945312,-0.30990415
3.953125,-0.32907348
3.960938,-0.32907348
3.968750,-0.25878594
3.976562,-0.15654952
3.984375,-0.08626198
3.992188,-0.07987220
4.000000,-0.09265176
4.007812,-0.09265176
4.015625,-0.08626198
4.023438,-0.07987220
4.031250,-0.07348243
4.039062,-0.07987220
4.046875,-0.07348243
4.054688,-0.07348243
4.062500,-0.06709265
4.070312,-0.05431310
4.078125,-0.06709265
4.085938,-0.06070288
4.093750,-0.05431310
4.101562,-0.05431310
4.109375,-0.05431310
4.117188,-0.05431310
4.125000,-0.04792332
4.132812,-0.03514377
4.140625,-0.04792332
4.148438,-0.03514377
4.156250,-0.01597444
4.164062,-0.01597444
4.171875,-0.00319489
4.179688,0.00958466
4.187500,0.04153355
4.195312,0.04792332
4.203125,0.06709265
4.210938,0.07987220
4.218750,0.11182109
4.226562,0.13099042
4.234375,0.15654952
4.242188,0.16293930
4.250000,0.17571885
4.257812,0.18210863
4.265625,0.18210863
4.273438,0.17571885
4.281250,0.14376997
4.289062,0.10543131
4.296875,0.06070288
4.304688,0.01597444
4.312500,-0.01597444
4.320312,-0.03514377
4.328125,-0.06709265
4.335938,-0.09265176
4.343750,-0.09904153
4.351562,-0.10543131
4.359375,-0.10543131
4.367188,-0.11821086
4.375000,-0.11821086
4.382812,-0.11182109
4.390625,-0.12460064
4.398438,-0.11182109
4.406250,-0.11821086
4.414062,-0.11821086
4.421875,-0.11821086
4.429688,-0.10543131
4.437500,-0.09904153
4.445312,-0.09904153
4.453125,-0.10543131
4.460938,-0.08626198
4.468750,-0.09904153
4.476562,-0.07987220
4.484375,-0.06709265
4.492188,-0.07348243
4.500000,-0.07348243
4.507812,-0.06709265
4.515625,-0.07348243
4.523438,-0.06070288
4.531250,-0.07348243
4.539062,-0.07348243
4.546875,-0.06709265
4.554688,-0.07348243
4.562500,-0.07987220
4.570312,-0.07348243
4.578125,-0.07987220
4.585938,-0.07987220
4.593750,-0.07348243
4.601562,-0.07348243
4.609375,-0.07348243
4.617188,-0.07987220
4.625000,-0.07987220
4.632812,-0.08626198
4.640625,-0.07348243
4.648438,-0.07348243
4.656250,-0.07348243
4.664062,-0.07987220
4.671875,-0.07348243
4.679688,-0.07348243
4.687500,-0.07348243
4.695312,-0.07987220
4.703125,-0.06709265
4.710938,-0.07348243
4.718750,-0.06709265
4.726562,-0.07348243
4.734375,-0.07987220
4.742188,-0.06709265
4.750000,-0.07348243
4.757812,-0.06709265
4.765625,-0.06709265
4.773438,-0.06070288
4.781250,-0.06070288
4.789062,-0.06709265
4.796875,-0.06709265
4.804688,-0.06070288
4.812500,-0.06709265
4.820312,-0.06709265
4.828125,-0.06709265
4.835938,-0.07348243
4.843750,-0.06070288
4.851562,-0.05431310
4.859375,-0.06070288
4.867188,-0.05431310
4.875000,-0.05431310
4.882812,-0.06070288
4.890625,-0.06709265
4.898438,-0.06070288
4.906250,-0.05431310
4.914062,-0.06070288
4.921875,-0.04792332
4.929688,-0.04153355
4.937500,-0.05431310
4.945312,-0.06070288
4.953125,-0.06070288
4.960938,-0.04792332
4.968750,-0.04153355
4.976562,-0.04792332
4.984375,-0.05431310
4.992188,-0.04792332
5.000000,-0.04153355
5.007812,-0.04153355
5.015625,-0.04153355
5.023438,-0.03514377
5.031250,-0.02236422
5.039062,-0.04153355
5.046875,-0.02236422
5.054688,-0.02875399
5.062500,-0.02875399
5.070312,-0.04153355
5.078125,-0.04153355
5.085938,-0.03514377
5.093750,-0.02875399
5.101562,-0.03514377
5.109375,-0.02875399
5.117188,-0.03514377
5.125000,-0.03514377
5.132812,-0.05431310
5.140625,-0.04792332
5.148438,-0.04153355
5.156250,-0.03514377
5.164062,-0.04792332
5.171875,-0.01597444
5.179688,-0.02875399
5.187500,-0.04153355
5.195312,0.02236422
5.203125,0.18849840
5.210938,0.59424920
5.218750,0.89776358
5.226562,0.88498403
5.234375,0.52076677
5.242188,0.11182109
5.250000,-0.29712460
5.257812,-0.30351438
5.265625,-0.30351438
5.273438,-0.29712460
5.281250,-0.34824281
5.289062,-0.27795527
5.296875,-0.16932907
5.304688,-0.07348243
5.312500,-0.06709265
5.320312,-0.06709265
5.328125,-0.06709265
5.335938,-0.05431310
5.343750,-0.06070288
5.351562,-0.06070288
5.359375,-0.04792332
5.367188,-0.04792332
5.375000,-0.04153355
5.382812,-0.04153355
5.390625,-0.04153355
5.398438,-0.04792332
5.406250,-0.03514377
5.414062,-0.04153355
5.421875,-0.02875399
5.429688,-0.02236422
5.437500,-0.02236422
5.445312,-0.02236422
5.453125,-0.01597444
5.460938,-0.00958466
5.468750,-0.00958466
5.476562,0.00319489
5.484375,0.00319489
5.492188,0.01597444
5.500000,0.02875399
5.507812,0.04792332
5.515625,0.06709265
5.523438,0.07987220
5.531250,0.10543131
5.539062,0.12460064
5.546875,0.14376997
5.554688,0.16293930
5.562500,0.17571885
5.570312,0.19488818
5.578125,0.19488818
5.585938,0.19488818
5.593750,0.18849840
5.601562,0.14376997
5.609375,0.12460064
5.617188,0.08626198
5.625000,0.04153355
5.632812,0.00319489
5.640625,-0.02875399
5.648438,-0.04792332
5.656250,-0.06709265
5.664062,-0.07348243
5.671875,-0.07348243
5.679688,-0.08626198
5.687500,-0.07987220
5.695312,-0.08626198
5.703125,-0.09265176
5.710938,-0.09265176
5.718750,-0.09265176
5.726562,-0.07987220
5.734375,-0.07348243
5.742188,-0.07348243
5.750000,-0.06709265
5.757812,-0.07987220
5.765625,-0.08626198
5.773438,-0.07348243
5.781250,-0.06070288
5.789062,-0.05431310
5.796875,-0.05431310
5.804688,-0.04153355
5.812500,-0.04792332
5.820312,-0.04792332
5.828125,-0.05431310
5.835938,-0.04792332
5.843750,-0.05431310
5.851562,-0.03514377
5.859375,-0.04153355
5.867188,-0.04792332
5.875000,-0.04792332
5.882812,-0.06070288
5.890625,-0.05431310
5.898438,-0.05431310
5.906250,-0.06070288
5.914062,-0.04792332
5.921875,-0.04792332
5.929688,-0.05431310
5.937500,-0.05431310
5.945312,-0.06070288
5.953125,-0.06709265
5.960938,-0.05431310
5.968750,-0.06070288
5.976562,-0.05431310
5.984375,-0.05431310
5.992188,-0.05431310
6.000000,-0.05431310
6.007812,-0.04792332
6.015625,-0.06709265
6.023438,-0.04792332
6.031250,-0.04792332
6.039062,-0.04792332
6.046875,-0.04792332
6.054688,-0.04792332
6.062500,-0.05431310
6.070312,-0.04792332
6.078125,-0.04792332
6.085938,-0.04792332
6.093750,-0.04153355
6.101562,-0.04792332
6.109375,-0.04153355
6.117188,-0.04153355
6.125000,-0.03514377
6.132812,-0.03514377
6.140625,-0.04153355
6.148438,-0.04792332
6.156250,-0.03514377
6.164062,-0.03514377
6.171875,-0.03514377
6.179688,-0.03514377
6.187500,-0.03514377
6.195312,-0.03514377
6.203125,-0.03514377
6.210938,-0.03514377
6.218750,-0.02236422
6.226562,-0.04153355
6.234375,-0.02236422
6.242188,-0.02875399
6.250000,-0.03514377
6.257812,-0.04153355
6.265625,-0.03514377
6.273438,-0.02875399
6.281250,-0.03514377
6.289062,-0.02875399
6.296875,-0.03514377
6.304688,-0.03514377
6.312500,-0.02875399
6.320312,-0.02875399
6.328125,-0.02875399
6.335938,-0.02875399
6.343750,-0.01597444
6.351562,-0.00319489
6.359375,-0.00958466
6.367188,-0.01597444
6.375000,-0.00319489
6.382812,-0.02875399
6.390625,-0.03514377
6.398438,-0.02875399
6.406250,-0.02236422
6.414062,-0.01597444
6.421875,-0.01597444
6.429688,-0.01597444
6.437500,-0.01597444
6.445312,-0.02236422
6.453125,-0.04153355
6.460938,-0.03514377
6.468750,-0.01597444
6.476562,-0.02236422
6.484375,-0.01597444
6.492188,-0.01597444
6.500000,-0.01597444
6.507812,-0.02236422
6.515625,-0.01597444
6.523438,0.08626198
6.531250,0.30990415
6.539062,0.71246006
6.546875,0.87859425
6.554688,0.76996805
6.562500,0.36102236
6.570312,-0.04792332
6.578125,-0.30990415
6.585938,-0.27795527
6.593750,-0.23961661
6.601562,-0.26517572
6.609375,-0.27795527
6.617188,-0.22683706
6.625000,-0.14376997
6.632812,-0.04792332
6.640625,-0.05431310
6.648438,-0.06070288
6.656250,-0.05431310
6.664062,-0.04153355
6.671875,-0.03514377
6.679688,-0.04153355
6.687500,-0.04792332
6.695312,-0.02875399
6.703125,-0.05431310
6.710938,-0.02875399
6.718750,-0.03514377
6.726562,-0.02236422
6.734375,-0.02236422
6.742188,-0.02236422
6.750000,-0.01597444
6.757812,-0.00958466
6.765625,-0.02236422
6.773438,-0.00958466
6.781250,-0.00958466
6.789062,0.00319489
6.796875,0.00319489
6.804688,0.02236422
6.812500,0.02236422
6.820312,0.03514377
6.828125,0.03514377
6.835938,0.05431310
6.843750,0.07348243
6.851562,0.09265176
6.859375,0.12460064
6.867188,0.13738019
6.875000,0.16293930
6.882812,0.17571885
6.890625,0.18849840
6.898438,0.20766773
6.906250,0.22044728
6.914062,0.20127796
6.921875,0.22044728
6.929688,0.18210863
6.937500,0.14376997
6.945312,0.10543131
6.953125,0.05431310
6.960938,0.02236422
6.968750,-0.00319489
6.976562,-0.04153355
6.984375,-0.03514377
6.992188,-0.06070288
7.000000,-0.06070288
7.007812,-0.06709265
7.015625,-0.07987220
7.023438,-0.07348243
7.031250,-0.07987220
7.039062,-0.07987220
7.046875,-0.07348243
7.054688,-0.07348243
7.062500,-0.07348243
7.070312,-0.06709265
7.078125,-0.07348243
7.085938,-0.06070288
7.093750,-0.05431310
7.101562,-0.05431310
7.109375,-0.05431310
7.117188,-0.05431310
7.125000,-0.04792332
7.132812,-0.04153355
7.140625,-0.04792332
7.148438,-0.03514377
7.156250,-0.01597444
7.164062,-0.03514377
7.171875,-0.02875399
7.179688,-0.03514377
7.187500,-0.03514377
7.195312,-0.04153355
7.203125,-0.03514377
7.210938,-0.03514377
7.218750,-0.03514377
7.226562,-0.04153355
7.234375,-0.04153355
7.242188,-0.04153355
7.250000,-0.04792332
7.257812,-0.04153355
7.265625,-0.04792332
7.273438,-0.04153355
7.281250,-0.04153355
7.289062,-0.04792332
7.296875,-0.04153355
7.304688,-0.03514377
7.312500,-0.04792332
7.320312,-0.04153355
7.328125,-0.04792332
7.335938,-0.04153355
7.343750,-0.04153355
7.351562,-0.05431310
7.359375,-0.04792332
7.367188,-0.04153355
7.375000,-0.04792332
7.382812,-0.02875399
7.390625,-0.03514377
7.398438,-0.04792332
7.406250,-0.04153355
7.414062,-0.04153355
7.421875,-0.03514377
7.429688,-0.03514377
7.437500,-0.02875399
7.445312,-0.04153355
7.453125,-0.04153355
7.460938,-0.03514377
7.468750,-0.03514377
7.476562,-0.05431310
7.484375,-0.02875399
7.492188,-0.02875399
7.500000,-0.03514377
7.507812,-0.03514377
7.515625,-0.03514377
7.523438,-0.02875399
7.531250,-0.02236422
7.539062,-0.04153355
7.546875,-0.03514377
7.554688,-0.02875399
7.562500,-0.02875399
7.570312,-0.02875399
7.578125,-0.04792332
7.585938,-0.02236422
7.593750,-0.02875399
7.601562,-0.02875399
7.609375,-0.03514377
7.617188,-0.02875399
7.625000,-0.02236422
7.632812,-0.02875399
7.640625,-0.02875399
7.648438,-0.02236422
7.656250,-0.01597444
7.664062,-0.01597444
7.671875,-0.02236422
7.679688,-0.01597444
7.687500,-0.02236422
7.695312,-0.03514377
7.703125,-0.02875399
7.710938,-0.02875399
7.718750,-0.00958466
7.726562,-0.02236422
7.734375,-0.02875399
7.742188,-0.02875399
7.750000,-0.03514377
7.757812,-0.04153355
7.765625,-0.06070288
7.773438,-0.02875399
7.781250,-0.02236422
7.789062,-0.02236422
7.796875,-0.02236422
7.804688,-0.04792332
7.812500,-0.00319489
7.820312,0.09265176
7.828125,0.34824281
7.835938,0.75399361
7.843750,0.96166134
7.851562,0.80191693
7.859375,0.39297125
7.867188,-0.01597444
7.875000,-0.35463259
7.882812,-0.29712460
7.890625,-0.30990415
7.898438,-0.29073482
7.906250,-0.29073482
7.914062,-0.25239617
7.921875,-0.15015974
7.929688,-0.07348243
7.937500,-0.07348243
7.945312,-0.06709265
7.953125,-0.06709265
7.960938,-0.06709265
7.968750,-0.06070288
7.976562,-0.06070288
7.984375,-0.06709265
7.992188,-0.06070288
8.000000,-0.04153355
8.007812,-0.04792332
8.015625,-0.05431310
8.023438,-0.05431310
8.031250,-0.04792332
8.039062,-0.04792332
8.046875,-0.04792332
8.054688,-0.03514377
8.062500,-0.01597444
8.070312,-0.03514377
8.078125,-0.03514377
8.085938,-0.02236422
8.093750,-0.01597444
8.101562,-0.00958466
8.109375,0.00319489
8.117188,0.00958466
8.125000,0.02236422
8.132812,0.02875399
8.140625,0.05431310
8.148438,0.06070288
8.156250,0.08626198
8.164062,0.11182109
8.171875,0.13738019
8.179688,0.15015974
8.187500,0.18210863
8.195312,0.19488818
8.203125,0.19488818
8.210938,0.19488818
8.218750,0.17571885
8.226562,0.17571885
8.234375,0.15015974
8.242188,0.09904153
8.250000,0.05431310
8.257812,0.00958466
8.265625,-0.02875399
8.273438,-0.05431310
8.281250,-0.08626198
8.289062,-0.08626198
8.296875,-0.09904153
8.304688,-0.09904153
8.312500,-0.10543131
8.320312,-0.11182109
8.328125,-0.11821086
8.335938,-0.11821086
8.343750,-0.11821086
8.351562,-0.11182109
8.359375,-0.11821086
8.367188,-0.10543131
8.375000,-0.10543131
8.382812,-0.10543131
8.390625,-0.10543131
8.398438,-0.10543131
8.406250,-0.09265176
8.414062,-0.07987220
8.421875,-0.07348243
8.429688,-0.07987220
8.437500,-0.07348243
8.445312,-0.07348243
8.453125,-0.07348243
8.460938,-0.07348243
8.468750,-0.06709265
8.476562,-0.07348243
8.484375,-0.06709265
8.492188,-0.07348243
8.500000,-0.07987220
8.507812,-0.07348243
8.515625,-0.07987220
8.523438,-0.07987220
8.531250,-0.07987220
8.539062,-0.07987220
8.546875,-0.07348243
8.554688,-0.07987220
8.562500,-0.07987220
8.570312,-0.08626198
8.578125,-0.08626198
8.585938,-0.07348243
8.593750,-0.08626198
8.601562,-0.09265176
8.609375,-0.07987220
8.617188,-0.08626198
8.625000,-0.07348243
8.632812,-0.08626198
8.640625,-0.09265176
8.648438,-0.07987220
8.656250,-0.07987220
8.664062,-0.08626198
8.671875,-0.07348243
8.679688,-0.07987220
8.687500,-0.07987220
8.695312,-0.08626198
8.703125,-0.08626198
8.710938,-0.07987220
8.718750,-0.08626198
8.726562,-0.07987220
8.734375,-0.07348243
8.742188,-0.08626198
8.750000,-0.08626198
8.757812,-0.07987220
8.765625,-0.08626198
8.773438,-0.07987220
8.781250,-0.07348243
8.789062,-0.09265176
8.796875,-0.07987220
8.804688,-0.07987220
8.812500,-0.08626198
8.820312,-0.08626198
8.828125,-0.07348243
8.835938,-0.07987220
8.843750,-0.07987220
8.851562,-0.07987220
8.859375,-0.07348243
8.867188,-0.08626198
8.875000,-0.06709265
8.882812,-0.07348243
8.890625,-0.08626198
8.898438,-0.07987220
8.906250,-0.07348243
8.914062,-0.07987220
8.921875,-0.06709265
8.929688,-0.06709265
8.937500,-0.07348243
8.945312,-0.07348243
8.953125,-0.07348243
8.960938,-0.07987220
8.968750,-0.06709265
8.976562,-0.04792332
8.984375,-0.05431310
8.992188,-0.06709265
9.000000,-0.06070288
9.007812,-0.06709265
9.015625,-0.06070288
9.023438,-0.06070288
9.031250,-0.05431310
9.039062,-0.06070288
9.046875,-0.06070288
9.054688,-0.05431310
9.062500,-0.06070288
9.070312,-0.07348243
9.078125,-0.07987220
9.085938,-0.06709265
9.093750,-0.07348243
9.101562,-0.06709265
9.109375,-0.06070288
9.117188,-0.05431310
9.125000,-0.07348243
9.132812,-0.06070288
9.140625,0.05431310
9.148438,0.32268371
9.156250,0.72843450
9.164062,0.89137380
9.171875,0.71246006
9.179688,0.30351438
9.187500,-0.10543131
9.195312,-0.38019169
9.203125,-0.32907348
9.210938,-0.32907348
9.218750,-0.36102236
9.226562,-0.35463259
9.234375,-0.28434505
9.242188,-0.15015974
9.250000,-0.08626198
9.257812,-0.09265176
9.265625,-0.09904153
9.273438,-0.07987220
9.281250,-0.08626198
9.289062,-0.07987220
9.296875,-0.07987220
9.304688,-0.07987220
9.312500,-0.06709265
9.320312,-0.06070288
9.328125,-0.07987220
9.335938,-0.06709265
9.343750,-0.06070288
9.351562,-0.06070288
9.359375,-0.06070288
9.367188,-0.06070288
9.375000,-0.06070288
9.382812,-0.03514377
9.390625,-0.04792332
9.398438,-0.04153355
9.406250,-0.02875399
9.414062,-0.02875399
9.421875,-0.01597444
9.429688,-0.01597444
9.437500,-0.00958466
9.445312,-0.00319489
9.453125,0.00958466
9.460938,0.03514377
9.468750,0.06070288
9.476562,0.07987220
9.484375,0.09904153
9.492188,0.12460064
9.500000,0.13738019
9.507812,0.15015974
9.515625,0.15654952
9.523438,0.17571885
9.531250,0.17571885
9.539062,0.16293930
9.546875,0.13738019
9.554688,0.10543131
9.562500,0.06709265
9.570312,0.02236422
9.578125,-0.01597444
9.585938,-0.03514377
9.593750,-0.06709265
9.601562,-0.07987220
9.609375,-0.08626198
9.617188,-0.08626198
9.625000,-0.09904153
9.632812,-0.09265176
9.640625,-0.11182109
9.648438,-0.10543131
9.656250,-0.09904153
9.664062,-0.11821086
9.671875,-0.09904153
9.679688,-0.08626198
9.687500,-0.07987220
9.695312,-0.09265176
9.703125,-0.09265176
9.710938,-0.08626198
9.718750,-0.07987220
9.726562,-0.08626198
9.734375,-0.07348243
9.742188,-0.06070288
9.750000,-0.06709265
9.757812,-0.06709265
9.765625,-0.06709265
9.773438,-0.06709265
9.781250,-0.06070288
9.789062,-0.07348243
9.796875,-0.05431310
9.804688,-0.05431310
9.812500,-0.06709265
9.820312,-0.06070288
9.828125,-0.06709265
9.835938,-0.06709265
9.843750,-0.06709265
9.851562,-0.07348243
9.859375,-0.07348243
9.867188,-0.06709265
9.875000,-0.07348243
9.882812,-0.07348243
9.890625,-0.07348243
9.898438,-0.07348243
9.906250,-0.06709265
9.914062,-0.07348243
9.921875,-0.06709265
9.929688,-0.06709265
9.937500,-0.06709265
9.945312,-0.06709265
9.953125,-0.07348243
9.960938,-0.06709265
9.968750,-0.07348243
9.976562,-0.04792332
9.984375,-0.05431310
9.992188,-0.06709265
10.000000,-0.05431310
10.007812,-0.06709265
10.015625,-0.06070288
10.023438,-0.05431310
10.031250,-0.06709265
10.039062,-0.06070288
10.046875,-0.06070288
10.054688,-0.06070288
10.062500,-0.06070288
10.070312,-0.05431310
10.078125,-0.05431310
10.085938,-0.05431310
10.093750,-0.06070288
10.101562,-0.06070288
10.109375,-0.04792332
10.117188,-0.04792332
10.125000,-0.04792332
10.132812,-0.05431310
10.140625,-0.06070288
10.148438,-0.04792332
10.156250,-0.05431310
10.164062,-0.04792332
10.171875,-0.05431310
10.179688,-0.06070288
10.187500,-0.05431310
10.195312,-0.04792332
10.203125,-0.05431310
10.210938,-0.06709265
10.218750,-0.04153355
10.226562,-0.02875399
10.234375,-0.04153355
10.242188,-0.04153355
10.250000,-0.04153355
10.257812,-0.03514377
10.265625,-0.02875399
10.273438,-0.02875399
10.281250,-0.03514377
10.289062,-0.03514377
10.296875,-0.03514377
10.304688,-0.04153355
10.312500,-0.04792332
10.320312,-0.04153355
10.328125,-0.03514377
10.335938,-0.04792332
10.343750,-0.02875399
10.351562,-0.03514377
10.359375,-0.04153355
10.367188,-0.05431310
10.375000,-0.03514377
10.382812,-0.04792332
10.390625,-0.04153355
10.398438,-0.03514377
10.406250,-0.01597444
10.414062,-0.02875399
10.421875,-0.03514377
10.429688,0.03514377
10.437500,0.21405751
10.445312,0.61980831
10.453125,0.92332268
10.460938,0.90415335
10.468750,0.52076677
10.476562,0.11182109
10.484375,-0.29712460
10.492188,-0.33546326
10.500000,-0.31629393
10.507812,-0.29073482
10.515625,-0.32268371
10.523438,-0.25878594
10.531250,-0.19488818
10.539062,-0.07348243
10.546875,-0.04792332
10.554688,-0.06070288
10.562500,-0.06709265
10.570312,-0.04792332
10.578125,-0.06070288
10.585938,-0.04792332
10.593750,-0.04792332
10.601562,-0.04792332
10.609375,-0.04153355
10.617188,-0.04153355
10.625000,-0.04153355
10.632812,-0.03514377
10.640625,-0.03514377
10.648438,-0.02875399
10.656250,-0.02875399
10.664062,-0.03514377
10.671875,-0.01597444
10.679688,-0.00958466
10.687500,-0.00958466
10.695312,-0.00319489
10.703125,0.00319489
10.710938,0.00319489
10.718750,0.02236422
10.726562,0.02875399
10.734375,0.05431310
10.742188,0.06070288
10.750000,0.07987220
10.757812,0.09265176
10.765625,0.11821086
10.773438,0.17571885
10.781250,0.18849840
10.789062,0.20766773
10.796875,0.20766773
10.804688,0.22044728
10.812500,0.22044728
10.820312,0.21405751
10.828125,0.19488818
10.835938,0.16293930
10.843750,0.11821086
10.851562,0.06709265
10.859375,0.02875399
10.867188,-0.01597444
10.875000,-0.04792332
10.882812,-0.06070288
10.890625,-0.09904153
10.898438,-0.09904153
10.906250,-0.11182109
10.914062,-0.13099042
10.921875,-0.10543131
10.929688,-0.11182109
10.937500,-0.11821086
10.945312,-0.12460064
10.953125,-0.13738019
10.960938,-0.13099042
10.968750,-0.11182109
10.976562,-0.12460064
10.984375,-0.11182109
10.992188,-0.10543131
11.000000,-0.10543131
11.007812,-0.09265176
11.015625,-0.10543131
11.023438,-0.09265176
11.031250,-0.09904153
11.039062,-0.08626198
11.046875,-0.07987220
11.054688,-0.08626198
11.062500,-0.07348243
11.070312,-0.09265176
11.078125,-0.09265176
11.085938,-0.07987220
11.093750,-0.07987220
11.101562,-0.08626198
11.109375,-0.07987220
11.117188,-0.08626198
11.125000,-0.09265176
11.132812,-0.08626198
11.140625,-0.09265176
11.148438,-0.09265176
11.156250,-0.09904153
11.164062,-0.09265176
11.171875,-0.08626198
11.179688,-0.09904153
11.187500,-0.09904153
11.195312,-0.08626198
11.203125,-0.10543131
11.210938,-0.09904153
11.218750,-0.08626198
11.226562,-0.09265176
11.234375,-0.09265176
11.242188,-0.09904153
11.250000,-0.09265176
11.257812,-0.08626198
11.265625,-0.10543131
11.273438,-0.09904153
11.281250,-0.07987220
11.289062,-0.09265176
11.296875,-0.08626198
11.304688,-0.09265176
11.312500,-0.09904153
11.320312,-0.09265176
11.328125,-0.09265176
11.335938,-0.09265176
11.343750,-0.08626198
11.351562,-0.07987220
11.359375,-0.08626198
11.367188,-0.09265176
11.375000,-0.08626198
11.382812,-0.07987220
11.390625,-0.09265176
11.398438,-0.08626198
11.406250,-0.07987220
11.414062,-0.07987220
11.421875,-0.07987220
11.429688,-0.08626198
11.437500,-0.08626198
11.445312,-0.08626198
11.453125,-0.09265176
11.460938,-0.07987220
11.468750,-0.06070288
11.476562,-0.07348243
11.484375,-0.06709265
11.492188,-0.06070288
11.500000,-0.05431310
11.507812,-0.09265176
11.515625,-0.08626198
11.523438,-0.07348243
11.531250,-0.07348243
11.539062,-0.06070288
11.546875,-0.05431310
11.554688,-0.04792332
11.562500,-0.02875399
11.570312,-0.03514377
11.578125,-0.04792332
11.585938,-0.04792332
11.593750,-0.07348243
11.601562,-0.08626198
11.609375,-0.04792332
11.617188,-0.05431310
11.625000,-0.05431310
11.632812,-0.04792332
11.640625,-0.06070288
11.648438,-0.07348243
11.656250,-0.07348243
11.664062,-0.07348243
11.671875,-0.07348243
11.679688,-0.06709265
11.687500,-0.06070288
11.695312,-0.04792332
11.703125,-0.05431310
11.710938,-0.05431310
11.718750,0.00319489
11.726562,0.20127796
11.734375,0.60702875
11.742188,0.89137380
11.750000,0.84664537
11.757812,0.43769968
11.765625,0.02875399
11.773438,-0.33546326
11.781250,-0.30351438
11.789062,-0.29712460
11.796875,-0.31629393
11.804688,-0.30990415
11.812500,-0.25239617
11.820312,-0.16293930
11.828125,-0.09265176
11.835938,-0.09904153
11.843750,-0.09265176
11.851562,-0.05431310
11.859375,-0.06070288
11.867188,-0.07987220
11.875000,-0.07987220
11.882812,-0.06709265
11.890625,-0.07987220
11.898438,-0.06709265
11.906250,-0.06709265
11.914062,-0.06070288
11.921875,-0.04153355
11.929688,-0.06070288
11.937500,-0.05431310
11.945312,-0.04792332
11.953125,-0.04153355
11.960938,-0.04153355
11.968750,-0.02875399
11.976562,-0.02236422
11.984375,-0.02236422
11.992188,0.04153355
12.000000,-0.00958466
12.007812,0.04153355
12.015625,-0.04153355
12.023438,0.01597444
12.031250,0.04153355
12.039062,0.02875399
12.046875,0.05431310
12.054688,0.09265176
12.062500,0.11821086
12.070312,0.16293930
12.078125,0.14376997
12.085938,0.17571885
12.093750,0.20127796
12.101562,0.18849840
12.109375,0.18849840
12.117188,0.18210863
12.125000,0.15015974
12.132812,0.11182109
12.140625,0.05431310
12.148438,0.01597444
12.156250,-0.02236422
12.164062,-0.04792332
12.171875,-0.06709265
12.179688,-0.11821086
12.187500,-0.11182109
12.195312,-0.09904153
12.203125,-0.12460064
12.210938,-0.13738019
12.218750,-0.11821086
12.226562,-0.11821086
12.234375,-0.09904153
12.242188,-0.13099042
12.250000,-0.13099042
12.257812,-0.13099042
12.265625,-0.11182109
12.273438,-0.06709265
12.281250,-0.11821086
12.289062,-0.14376997
12.296875,-0.10543131
12.304688,-0.07987220
12.312500,-0.07987220
12.320312,-0.09904153
12.328125,-0.09904153
12.335938,-0.07987220
12.343750,-0.06070288
12.351562,-0.08626198
12.359375,-0.06709265
12.367188,-0.06709265
12.375000,-0.01597444
12.382812,-0.07987220
12.390625,-0.10543131
12.398438,-0.11821086
12.406250,-0.07987220
12.414062,-0.07348243
12.421875,-0.06709265
12.429688,-0.07987220
12.437500,-0.05431310
12.445312,-0.07348243
12.453125,-0.08626198
12.460938,-0.04153355
12.468750,-0.06709265
12.476562,-0.13738019
12.484375,-0.13099042
12.492188,-0.08626198
12.500000,-0.09265176
12.507812,-0.07987220
12.515625,-0.07987220
12.523438,-0.07348243
12.531250,-0.07987220
12.539062,-0.07348243
12.546875,-0.04153355
12.554688,-0.10543131
12.562500,-0.03514377
12.570312,-0.12460064
12.578125,-0.09265176
12.585938,-0.08626198
12.593750,-0.07348243
12.601562,-0.08626198
12.609375,-0.07348243
12.617188,-0.07987220
12.625000,-0.10543131
12.632812,-0.09265176
12.640625,-0.08626198
12.648438,-0.05431310
12.656250,-0.08626198
12.664062,-0.09265176
12.671875,-0.08626198
12.679688,-0.07348243
12.687500,-0.06070288
12.695312,-0.06709265
12.703125,-0.09265176
12.710938,-0.08626198
12.718750,-0.07348243
12.726562,-0.06070288
12.734375,-0.04153355
12.742188,-0.07348243
12.750000,-0.09265176
12.757812,-0.02875399
12.765625,-0.07348243
12.773438,-0.09265176
12.781250,-0.07348243
12.789062,-0.04153355
12.796875,-0.04153355
12.804688,-0.02875399
12.812500,-0.02236422
12.820312,-0.01597444
12.828125,-0.02236422
12.835938,-0.03514377
12.843750,-0.00319489
12.851562,-0.07987220
12.859375,-0.04153355
12.867188,-0.01597444
12.875000,-0.04792332
12.882812,-0.05431310
12.890625,-0.07348243
12.898438,-0.07348243
12.906250,-0.03514377
12.914062,-0.08626198
12.921875,-0.07987220
12.929688,-0.07348243
12.937500,-0.06709265
12.945312,-0.00958466
12.953125,0.16932907
12.960938,0.57507987
12.968750,0.89776358
12.976562,0.90415335
12.984375,0.51437700
12.992188,0.10543131
13.000000,-0.30351438
13.007812,-0.34185304
13.015625,-0.34824281
13.023438,-0.32907348
13.031250,-0.34185304
13.039062,-0.27156550
13.046875,-0.18210863
13.054688,-0.06709265
13.062500,-0.11821086
13.070312,-0.09904153
13.078125,-0.09904153
13.085938,-0.09904153
13.093750,-0.08626198
13.101562,-0.07348243
13.109375,-0.07348243
13.117188,-0.06709265
13.125000,-0.06070288
13.132812,-0.03514377
13.140625,-0.04792332
13.148438,-0.06709265
13.156250,-0.07987220
13.164062,-0.07348243
13.171875,-0.05431310
13.179688,-0.05431310
13.187500,-0.02875399
13.195312,-0.04153355
13.203125,-0.02236422
13.210938,-0.02875399
13.218750,-0.01597444
13.226562,-0.02875399
13.234375,-0.01597444
13.242188,0.01597444
13.250000,0.04153355
13.257812,0.03514377
13.265625,0.04792332
13.273438,0.06709265
13.281250,0.07348243
13.289062,0.11182109
13.296875,0.12460064
13.304688,0.15015974
13.312500,0.18210863
13.320312,0.18210863
13.328125,0.20127796
13.335938,0.20127796
13.343750,0.18849840
13.351562,0.15654952
13.359375,0.15015974
13.367188,0.09904153
13.375000,0.06709265
13.382812,0.00958466
13.390625,-0.00958466
13.398438,-0.04792332
13.406250,-0.06709265
13.414062,-0.09265176
13.421875,-0.07987220
13.429688,-0.08626198
13.437500,-0.07987220
13.445312,-0.07987220
13.453125,-0.11821086
13.460938,-0.09904153
13.468750,-0.09265176
13.476562,-0.09265176
13.484375,-0.09904153
13.492188,-0.09265176
13.500000,-0.08626198
13.507812,-0.07987220
13.515625,-0.07987220
13.523438,-0.04792332
13.531250,-0.07348243
13.539062,-0.09265176
13.546875,-0.07987220
13.554688,-0.07987220
13.562500,-0.06070288
13.570312,-0.06709265
13.578125,-0.07987220
13.585938,-0.06709265
13.593750,-0.05431310
13.601562,-0.02236422
13.609375,-0.06709265
13.617188,-0.06709265
13.625000,-0.03514377
13.632812,-0.09904153
13.640625,-0.10543131
13.648438,-0.07987220
13.656250,-0.06709265
13.664062,-0.06709265
13.671875,-0.06070288
13.679688,-0.06709265
13.687500,-0.06709265
13.695312,-0.06709265
13.703125,-0.06070288
13.710938,-0.06070288
13.718750,-0.07987220
13.726562,-0.05431310
13.734375,-0.09904153
13.742188,-0.08626198
13.750000,-0.06709265
13.757812,-0.06709265
13.765625,-0.07348243
13.773438,-0.07348243
13.781250,-0.06709265
13.789062,-0.06709265
13.796875,-0.06070288
13.804688,-0.06070288
13.812500,-0.07348243
13.820312,-0.04153355
13.828125,-0.06709265
13.835938,-0.07348243
13.843750,-0.09265176
13.851562,-0.07348243
13.859375,-0.05431310
13.867188,-0.05431310
13.875000,-0.06070288
13.882812,-0.05431310
13.890625,-0.07348243
13.898438,-0.06070288
13.906250,-0.04153355
13.914062,-0.05431310
13.921875,-0.04792332
13.929688,-0.06070288
13.937500,-0.04792332
13.945312,-0.06709265
13.953125,-0.07348243
13.960938,-0.06070288
13.968750,-0.02236422
13.976562,-0.00958466
13.984375,-0.00319489
13.992188,-0.01597444
14.000000,-0.00319489
14.007812,-0.00319489
14.015625,-0.02875399
14.023438,0.00319489
14.031250,-0.03514377
14.039062,-0.04792332
14.046875,-0.04792332
14.054688,-0.04792332
14.062500,-0.05431310
14.070312,-0.04792332
14.078125,-0.07348243
14.085938,-0.06709265
14.093750,-0.06709265
14.101562,-0.04792332
14.109375,-0.03514377
14.117188,-0.06070288
14.125000,0.00958466
14.132812,0.16293930
14.140625,0.56869010
14.148438,0.88498403
14.156250,0.87220447
14.164062,0.52076677
14.171875,0.11182109
14.179688,-0.29712460
14.187500,-0.34185304
14.195312,-0.32907348
14.203125,-0.34185304
14.210938,-0.34824281
14.218750,-0.26517572
14.226562,-0.15015974
14.234375,-0.05431310
14.242188,-0.07987220
14.250000,-0.09265176
14.257812,-0.08626198
14.265625,-0.09265176
14.273438,-0.07987220
14.281250,-0.06709265
14.289062,-0.06070288
14.296875,-0.04792332
14.304688,-0.06070288
14.312500,-0.03514377
14.320312,-0.04792332
14.328125,-0.06070288
14.335938,0.01597444
14.343750,-0.06709265
14.351562,-0.09265176
14.359375,-0.06709265
14.367188,-0.04153355
14.375000,-0.03514377
14.382812,-0.02875399
14.390625,-0.03514377
14.398438,-0.01597444
14.406250,-0.00958466
14.414062,-0.00958466
14.421875,0.02236422
14.429688,-0.00319489
14.437500,0.02875399
14.445312,0.04792332
14.453125,0.06070288
14.460938,0.08626198
14.468750,0.10543131
14.476562,0.11821086
14.484375,0.16932907
14.492188,0.16293930
14.500000,0.16293930
14.507812,0.14376997
14.515625,0.14376997
14.523438,0.15015974
14.531250,0.13738019
14.539062,0.09265176
14.546875,0.09904153
14.554688,0.04792332
14.562500,-0.00319489
14.570312,-0.04153355
14.578125,-0.05431310
14.585938,-0.06070288
14.593750,-0.08626198
14.601562,-0.07987220
14.609375,-0.09265176
14.617188,-0.08626198
14.625000,-0.08626198
14.632812,-0.07348243
14.640625,-0.10543131
14.648438,-0.09904153
14.656250,-0.03514377
14.664062,-0.06709265
14.671875,-0.10543131
14.679688,-0.08626198
14.687500,-0.07348243
14.695312,-0.06709265
14.703125,-0.06070288
14.710938,-0.06709265
14.718750,-0.05431310
14.726562,-0.04792332
14.734375,-0.05431310
14.742188,-0.04153355
14.750000,-0.04153355
14.757812,-0.04153355
14.765625,-0.04792332
14.773438,-0.03514377
14.781250,-0.04792332
14.789062,-0.02875399
14.796875,-0.03514377
14.804688,-0.04792332
14.812500,-0.04153355
14.820312,-0.04153355
14.828125,-0.04153355
14.835938,-0.03514377
14.843750,-0.04153355
14.851562,-0.07348243
14.859375,-0.05431310
14.867188,-0.04792332
14.875000,-0.04792332
14.882812,-0.04153355
14.890625,-0.03514377
14.898438,-0.04153355
14.906250,-0.03514377
14.914062,-0.04792332
14.921875,-0.02875399
14.929688,-0.03514377
14.937500,-0.04153355
14.945312,-0.04153355
14.953125,-0.03514377
14.960938,-0.02875399
14.968750,0.01597444
14.976562,-0.02875399
14.984375,-0.06709265
14.992188,-0.02875399
15.000000,-0.08626198
15.007812,-0.04153355
15.015625,-0.03514377
15.023438,-0.01597444
15.031250,-0.00958466
15.039062,0.01597444
15.046875,0.01597444
15.054688,0.02236422
15.062500,0.00958466
15.070312,0.02875399
15.078125,0.00319489
15.085938,-0.00319489
15.093750,0.00319489
15.101562,0.00319489
15.109375,-0.01597444
15.117188,-0.04153355
15.125000,-0.03514377
15.132812,-0.03514377
15.140625,-0.03514377
15.148438,-0.03514377
15.156250,-0.02236422
15.164062,-0.01597444
15.171875,-0.02875399
15.179688,0.00319489
15.187500,0.13738019
15.195312,0.50798722
15.203125,0.89137380
15.210938,0.93610224
15.218750,0.55910543
15.226562,0.15015974
15.234375,-0.25878594
15.242188,-0.27795527
15.250000,-0.26517572
15.257812,-0.23961661
15.265625,-0.25239617
15.273438,-0.19488818
15.281250,-0.14376997
15.289062,-0.05431310
15.296875,-0.04153355
15.304688,-0.04153355
15.312500,-0.03514377
15.320312,-0.02875399
15.328125,-0.02875399
15.335938,-0.02236422
15.343750,-0.00958466
15.351562,-0.02236422
15.359375,-0.01597444
15.367188,0.00958466
15.375000,0.01597444
15.382812,-0.00958466
15.390625,-0.00958466
15.398438,0.00319489
15.406250,0.02236422
15.414062,0.00958466
15.421875,0.02875399
15.429688,0.02875399
15.437500,0.04153355
15.445312,0.04153355
15.453125,0.06070288
15.460938,0.05431310
15.468750,0.07348243
15.476562,0.07987220
15.484375,0.11182109
15.492188,0.11821086
15.500000,0.15015974
15.507812,0.16932907
15.515625,0.18849840
15.523438,0.22683706
15.531250,0.25239617
15.539062,0.27156550
15.546875,0.29712460
15.554688,0.30990415
15.562500,0.30351438
15.570312,0.29073482
15.578125,0.27795527
15.585938,0.25878594
15.593750,0.19488818
15.601562,0.16293930
15.609375,0.10543131
15.617188,0.05431310
15.625000,0.02875399
15.632812,0.00319489
15.640625,-0.02875399
15.648438,-0.05431310
15.656250,-0.03514377
15.664062,-0.04792332
15.671875,-0.05431310
15.679688,-0.06709265
15.687500,-0.06709265
15.695312,-0.06709265
15.703125,-0.07987220
15.710938,-0.06709265
15.718750,-0.06070288
15.726562,-0.04792332
15.734375,-0.05431310
15.742188,-0.04792332
15.750000,-0.03514377
15.757812,-0.02875399
15.765625,-0.03514377
15.773438,-0.03514377
15.781250,-0.04792332
15.789062,-0.04153355
15.796875,-0.02236422
15.804688,-0.02875399
15.812500,-0.02236422
15.820312,-0.02875399
15.828125,-0.03514377
15.835938,-0.02875399
15.843750,-0.04153355
15.851562,-0.02875399
15.859375,-0.04153355
15.867188,-0.04153355
15.875000,-0.04792332
15.882812,-0.04792332
15.890625,-0.05431310
15.898438,-0.04153355
15.906250,-0.04153355
15.914062,-0.06070288
15.921875,-0.06070288
15.929688,-0.06070288
15.937500,-0.04153355
15.945312,-0.06070288
15.953125,-0.06070288
15.960938,-0.06709265
15.968750,-0.06070288
15.976562,-0.06070288
15.984375,-0.05431310
15.992188,-0.06070288
16.000000,-0.06709265
16.007812,-0.07987220
16.015625,-0.07348243
16.023438,-0.06070288
16.031250,-0.05431310
16.039062,-0.04792332
16.046875,-0.04153355
16.054688,-0.03514377
16.062500,-0.00958466
16.070312,-0.00958466
16.078125,-0.00958466
16.085938,-0.02875399
16.093750,-0.02875399
16.101562,-0.01597444
16.109375,-0.02875399
16.117188,-0.02236422
16.125000,-0.03514377
16.132812,-0.03514377
16.140625,-0.05431310
16.148438,-0.06070288
16.156250,-0.06709265
16.164062,-0.07348243
16.171875,-0.06709265
16.179688,-0.04792332
16.187500,-0.04792332
16.195312,-0.05431310
16.203125,-0.06070288
16.210938,-0.00319489
16.218750,0.11821086
16.226562,0.45047923
16.234375,0.85623003
16.242188,0.96805112
16.250000,0.71246006
16.257812,0.30351438
16.265625,-0.10543131
16.273438,-0.32907348
16.281250,-0.30990415
16.289062,-0.27156550
16.296875,-0.26517572
16.304688,-0.23961661
16.312500,-0.20766773
16.320312,-0.11821086
16.328125,-0.07987220
16.335938,-0.06070288
16.343750,-0.06709265
16.351562,-0.06070288
16.359375,-0.04792332
16.367188,-0.05431310
16.375000,-0.05431310
16.382812,-0.04792332
16.390625,-0.04792332
16.398438,-0.04153355
16.406250,-0.04153355
16.414062,-0.03514377
16.421875,-0.03514377
16.429688,-0.04153355
16.437500,-0.04153355
16.445312,-0.03514377
16.453125,-0.02875399
16.460938,-0.03514377
16.468750,-0.02236422
16.476562,-0.02236422
16.484375,-0.00958466
16.492188,0.00319489
16.500000,0.01597444
16.507812,0.01597444
16.515625,0.00319489
16.523438,0.05431310
16.531250,0.07987220
16.539062,0.08626198
16.546875,0.10543131
16.554688,0.14376997
16.562500,0.17571885
16.570312,0.18849840
16.578125,0.20127796
16.585938,0.22044728
16.593750,0.22683706
16.601562,0.22683706
16.609375,0.21405751
16.617188,0.18210863
16.625000,0.14376997
16.632812,0.09265176
16.640625,0.03514377
16.648438,0.00319489
16.656250,-0.04153355
16.664062,-0.07348243
16.671875,-0.07987220
16.679688,-0.10543131
16.687500,-0.10543131
16.695312,-0.12460064
16.703125,-0.12460064
16.710938,-0.12460064
16.718750,-0.12460064
16.726562,-0.13738019
16.734375,-0.13099042
16.742188,-0.12460064
16.750000,-0.12460064
16.757812,-0.13099042
16.765625,-0.12460064
16.773438,-0.12460064
16.781250,-0.10543131
16.789062,-0.10543131
16.796875,-0.11182109
16.804688,-0.10543131
16.812500,-0.09904153
16.820312,-0.09265176
16.828125,-0.09265176
16.835938,-0.09265176
16.843750,-0.08626198
16.851562,-0.07987220
16.859375,-0.08626198
16.867188,-0.09265176
16.875000,-0.09265176
16.882812,-0.11182109
16.890625,-0.11821086
16.898438,-0.08626198
16.906250,-0.07348243
16.914062,-0.10543131
16.921875,-0.11182109
16.929688,-0.09904153
16.937500,-0.10543131
16.945312,-0.09904153
16.953125,-0.09904153
16.960938,-0.10543131
16.968750,-0.09904153
16.976562,-0.10543131
16.984375,-0.09904153
16.992188,-0.10543131
17.000000,-0.09904153
17.007812,-0.09265176
17.015625,-0.09265176
17.023438,-0.08626198
17.031250,-0.06070288
17.039062,-0.06070288
17.046875,-0.05431310
17.054688,-0.06709265
17.062500,-0.07348243
17.070312,-0.05431310
17.078125,-0.08626198
17.085938,-0.07987220
17.093750,-0.07987220
17.101562,-0.07348243
17.109375,-0.09265176
17.117188,-0.10543131
17.125000,-0.11182109
17.132812,-0.11182109
17.140625,-0.11182109
17.148438,-0.09265176
17.156250,-0.08626198
17.164062,-0.08626198
17.171875,-0.08626198
17.179688,-0.07987220
17.187500,0.02875399
17.195312,0.32268371
17.203125,0.72843450
17.210938,0.92971246
17.218750,0.75079872
17.226562,0.34185304
17.234375,-0.06709265
17.242188,-0.41214058
17.250000,-0.36102236
17.257812,-0.35463259
17.265625,-0.37380192
17.273438,-0.35463259
17.281250,-0.29712460
17.289062,-0.18210863
17.296875,-0.11182109
17.304688,-0.09904153
17.312500,-0.13099042
17.320312,-0.11821086
17.328125,-0.10543131
17.335938,-0.09904153
17.343750,-0.09904153
17.351562,-0.10543131
17.359375,-0.09265176
17.367188,-0.09904153
17.375000,-0.08626198
17.382812,-0.08626198
17.390625,-0.09265176
17.398438,-0.07987220
17.406250,-0.07987220
17.414062,-0.07348243
17.421875,-0.04153355
17.429688,-0.05431310
17.437500,-0.05431310
17.445312,-0.06070288
17.453125,-0.06070288
17.460938,-0.04792332
17.468750,-0.03514377
17.476562,-0.02875399
17.484375,-0.00319489
17.492188,0.00958466
17.500000,0.04153355
17.507812,0.04792332
17.515625,0.06709265
17.523438,0.09265176
17.531250,0.11821086
17.539062,0.14376997
17.546875,0.15654952
17.554688,0.16932907
17.562500,0.16932907
17.570312,0.16293930
17.578125,0.14376997
17.585938,0.13099042
17.593750,0.09265176
17.601562,0.04792332
17.609375,-0.00319489
17.617188,-0.04153355
17.625000,-0.06709265
17.632812,-0.07987220
17.640625,-0.11182109
17.648438,-0.11821086
17.656250,-0.11182109
17.664062,-0.11182109
17.671875,-0.12460064
17.679688,-0.14376997
17.687500,-0.13738019
17.695312,-0.14376997
17.703125,-0.13738019
17.710938,-0.12460064
17.718750,-0.13099042
17.726562,-0.14376997
17.734375,-0.13099042
17.742188,-0.13099042
17.750000,-0.09265176
17.757812,-0.12460064
17.765625,-0.13738019
17.773438,-0.13738019
17.781250,-0.11182109
17.789062,-0.11182109
17.796875,-0.10543131
17.804688,-0.11182109
17.812500,-0.09904153
17.820312,-0.09904153
17.828125,-0.11182109
17.835938,-0.10543131
17.843750,-0.10543131
17.851562,-0.09904153
17.859375,-0.10543131
17.867188,-0.09904153
17.875000,-0.09904153
17.882812,-0.10543131
17.890625,-0.10543131
17.898438,-0.10543131
17.906250,-0.09904153
17.914062,-0.09904153
17.921875,-0.09265176
17.929688,-0.09265176
17.937500,-0.08626198
17.945312,-0.08626198
17.953125,-0.07348243
17.960938,-0.04792332
17.968750,-0.04153355
17.976562,-0.05431310
17.984375,-0.05431310
17.992188,-0.04792332
18.000000,-0.04792332
18.007812,-0.07348243
18.015625,-0.06070288
18.023438,-0.06709265
18.031250,-0.07348243
18.039062,-0.09265176
18.046875,-0.11821086
18.054688,-0.11182109
18.062500,-0.09265176
18.070312,-0.09904153
18.078125,-0.08626198
18.085938,-0.07348243
18.093750,-0.09904153
18.101562,-0.09904153
18.109375,-0.04792332
18.117188,0.06709265
18.125000,0.43769968
18.132812,0.80830671
18.140625,0.85942492
18.148438,0.56549521
18.156250,0.15654952
18.164062,-0.25239617
18.171875,-0.35463259
18.179688,-0.35463259
18.187500,-0.34824281
18.195312,-0.37380192
18.203125,-0.31629393
18.210938,-0.22044728
18.218750,-0.11182109
18.226562,-0.10543131
18.234375,-0.10543131
18.242188,-0.11182109
18.250000,-0.09265176
18.257812,-0.09904153
18.265625,-0.09904153
18.273438,-0.08626198
18.281250,-0.07987220
18.289062,-0.07348243
18.296875,-0.07987220
18.304688,-0.07348243
18.312500,-0.06709265
18.320312,-0.06070288
18.328125,-0.07348243
18.335938,-0.04153355
18.343750,-0.04153355
18.351562,-0.03514377
18.359375,-0.04153355
18.367188,-0.02236422
18.375000,-0.02875399
18.382812,-0.00319489
18.390625,0.00958466
18.398438,0.01597444
18.406250,0.01597444
18.414062,0.05431310
18.421875,0.06709265
18.429688,0.09904153
18.437500,0.10543131
18.445312,0.14376997
18.453125,0.17571885
18.460938,0.20766773
18.468750,0.22683706
18.476562,0.25239617
18.484375,0.26517572
18.492188,0.25239617
18.500000,0.23961661
18.507812,0.21405751
18.515625,0.18210863
18.523438,0.13738019
18.531250,0.07987220
18.539062,0.04153355
18.546875,0.00319489
18.554688,-0.02875399
18.562500,-0.06070288
18.570312,-0.07987220
18.578125,-0.07987220
18.585938,-0.06709265
18.593750,-0.08626198
18.601562,-0.08626198
18.609375,-0.08626198
18.617188,-0.07987220
18.625000,-0.07348243
18.632812,-0.07348243
18.640625,-0.08626198
18.648438,-0.08626198
18.656250,-0.07987220
18.664062,-0.06709265
18.671875,-0.06709265
18.679688,-0.05431310
18.687500,-0.04792332
18.695312,-0.06070288
18.703125,-0.04792332
18.710938,-0.04792332
18.718750,-0.04153355
18.726562,-0.04792332
18.734375,-0.04792332
18.742188,-0.04153355
18.750000,-0.04153355
18.757812,-0.04153355
18.765625,-0.04792332
18.773438,-0.04792332
18.781250,-0.04792332
18.789062,-0.04153355
18.796875,-0.04792332
18.804688,-0.04792332
18.812500,-0.04792332
18.820312,-0.04792332
18.828125,-0.05431310
18.835938,-0.05431310
18.843750,-0.04792332
18.851562,-0.05431310
18.859375,-0.06070288
18.867188,-0.04792332
18.875000,-0.04153355
18.882812,-0.04792332
18.890625,-0.06070288
18.898438,-0.04792332
18.906250,-0.04792332
18.914062,-0.04153355
18.921875,-0.02875399
18.929688,-0.02236422
18.937500,-0.00958466
18.945312,-0.00958466
18.953125,-0.01597444
18.960938,-0.02875399
18.968750,-0.00958466
18.976562,-0.02236422
18.984375,-0.03514377
18.992188,-0.03514377
19.000000,-0.04153355
19.007812,-0.04792332
19.015625,-0.07348243
19.023438,-0.08626198
19.031250,-0.08626198
19.039062,-0.07987220
19.046875,-0.07348243
19.054688,-0.07348243
19.062500,-0.07348243
19.070312,-0.07987220
19.078125,-0.08626198
19.085938,0.01597444
19.093750,0.24600639
19.101562,0.65175719
19.109375,0.88498403
19.117188,0.76357827
19.125000,0.35463259
19.132812,-0.05431310
19.140625,-0.37380192
19.148438,-0.32907348
19.156250,-0.32268371
19.164062,-0.34824281
19.171875,-0.33546326
19.179688,-0.28434505
19.187500,-0.16932907
19.195312,-0.11821086
19.203125,-0.10543131
19.210938,-0.09904153
19.218750,-0.09904153
19.226562,-0.09904153
19.234375,-0.08626198
19.242188,-0.09904153
19.250000,-0.09265176
19.257812,-0.09265176
19.265625,-0.09265176
19.273438,-0.08626198
19.281250,-0.07348243
19.289062,-0.07348243
19.296875,-0.07987220
19.304688,-0.07348243
19.312500,-0.07348243
19.320312,-0.06709265
19.328125,-0.06709265
19.335938,-0.06709265
19.343750,-0.05431310
19.351562,-0.05431310
19.359375,-0.05431310
19.367188,-0.02875399
19.375000,-0.01597444
19.382812,-0.00958466
19.390625,-0.00958466
19.398438,0.01597444
19.406250,0.02875399
19.414062,0.04792332
19.421875,0.06709265
19.429688,0.08626198
19.437500,0.09904153
19.445312,0.09904153
19.453125,0.11821086
19.460938,0.14376997
19.468750,0.15015974
19.476562,0.14376997
19.484375,0.13738019
19.492188,0.10543131
19.500000,0.07348243
19.507812,0.04153355
19.515625,-0.00319489
19.523438,-0.03514377
19.531250,-0.06070288
19.539062,-0.07348243
19.546875,-0.08626198
19.554688,-0.09904153
19.562500,-0.09904153
19.570312,-0.10543131
19.578125,-0.11821086
19.585938,-0.11182109
19.593750,-0.11182109
19.601562,-0.11182109
19.609375,-0.11182109
19.617188,-0.11182109
19.625000,-0.10543131
19.632812,-0.09904153
19.640625,-0.10543131
19.648438,-0.10543131
19.656250,-0.09265176
19.664062,-0.09265176
19.671875,-0.08626198
19.679688,-0.08626198
19.687500,-0.08626198
19.695312,-0.07987220
19.703125,-0.07987220
19.710938,-0.07348243
19.718750,-0.07348243
19.726562,-0.08626198
19.734375,-0.07348243
19.742188,-0.07987220
19.750000,-0.07348243
19.757812,-0.07348243
19.765625,-0.07348243
19.773438,-0.07987220
19.781250,-0.07987220
19.789062,-0.07987220
19.796875,-0.07987220
19.804688,-0.07987220
19.812500,-0.08626198
19.820312,-0.07987220
19.828125,-0.07348243
19.835938,-0.06070288
19.843750,-0.06070288
19.851562,-0.06709265
19.859375,-0.05431310
19.867188,-0.03514377
19.875000,-0.02236422
19.882812,-0.01597444
19.890625,-0.02236422
19.898438,-0.04153355
19.906250,-0.02236422
19.914062,-0.02236422
19.921875,-0.03514377
19.929688,-0.03514377
19.937500,-0.04153355
19.945312,-0.04792332
19.953125,-0.07348243
19.960938,-0.08626198
19.968750,-0.08626198
19.976562,-0.07987220
19.984375,-0.06709265
19.992188,-0.06070288
20.000000,-0.04792332
20.007812,-0.07348243
20.015625,-0.06709265
20.023438,0.02875399
20.031250,0.24600639
20.039062,0.65175719
20.046875,0.91054313
20.054688,0.80191693
20.062500,0.39297125
20.070312,-0.01597444
20.078125,-0.36741214
20.085938,-0.32268371
20.093750,-0.30990415
20.101562,-0.29712460
20.109375,-0.27156550
20.117188,-0.23961661
20.125000,-0.13099042
20.132812,-0.09265176
20.140625,-0.09265176
20.148438,-0.07987220
20.156250,-0.07987220
20.164062,-0.07348243
20.171875,-0.07987220
20.179688,-0.06709265
20.187500,-0.07348243
20.195312,-0.06709265
20.203125,-0.06070288
20.210938,-0.06709265
20.218750,-0.05431310
20.226562,-0.04153355
20.234375,-0.06070288
20.242188,-0.06070288
20.250000,-0.04153355
20.257812,-0.03514377
20.265625,-0.02875399
20.273438,-0.02236422
20.281250,-0.00958466
20.289062,-0.00319489
20.296875,-0.00319489
20.304688,0.01597444
20.312500,0.04792332
20.320312,0.06070288
20.328125,0.06709265
20.335938,0.09265176
20.343750,0.11182109
20.351562,0.15015974
20.359375,0.17571885
20.367188,0.20766773
20.375000,0.22044728
20.382812,0.24600639
20.390625,0.25878594
20.398438,0.25878594
20.406250,0.24600639
20.414062,0.23961661
20.421875,0.21405751
20.429688,0.16293930
20.437500,0.11182109
20.445312,0.06070288
20.453125,0.00958466
20.460938,-0.01597444
20.468750,-0.05431310
20.476562,-0.06709265
20.484375,-0.07987220
20.492188,-0.08626198
20.500000,-0.09265176
20.507812,-0.08626198
20.515625,-0.09904153
20.523438,-0.09904153
20.531250,-0.08626198
20.539062,-0.09904153
20.546875,-0.09265176
20.554688,-0.07987220
20.562500,-0.05431310
20.570312,-0.06709265
20.578125,-0.06070288
20.585938,-0.06070288
20.593750,-0.05431310
20.601562,-0.04153355
20.609375,-0.02875399
20.617188,-0.02875399
20.625000,-0.04153355
20.632812,-0.03514377
20.640625,-0.03514377
20.648438,-0.03514377
20.656250,-0.02875399
20.664062,-0.03514377
20.671875,-0.03514377
20.679688,-0.02875399
20.687500,-0.04153355
20.695312,-0.04153355
20.703125,-0.04792332
20.710938,-0.04792332
20.718750,-0.04153355
20.726562,-0.04792332
20.734375,-0.04153355
20.742188,-0.04792332
20.750000,-0.04792332
20.757812,-0.04792332
20.765625,-0.04792332
20.773438,-0.02875399
20.781250,-0.02236422
20.789062,-0.00958466
20.796875,0.00319489
20.804688,-0.01597444
20.812500,-0.02236422
20.820312,-0.02875399
20.828125,-0.01597444
20.835938,-0.02875399
20.843750,-0.02875399
20.851562,-0.02875399
20.859375,-0.04153355
20.867188,-0.05431310
20.875000,-0.06709265
20.882812,-0.07987220
20.890625,-0.07987220
20.898438,-0.07348243
20.906250,-0.06070288
20.914062,-0.06070288
20.921875,-0.06709265
20.929688,-0.07987220
20.937500,0.00958466
20.945312,0.20127796
20.953125,0.60702875
20.960938,0.95527157
20.968750,0.96166134
20.976562,0.55271565
20.984375,0.14376997
20.992188,-0.26517572
21.000000,-0.40575080
21.007812,-0.38019169
21.015625,-0.35463259
21.023438,-0.34824281
21.031250,-0.30351438
21.039062,-0.25239617
21.046875,-0.15654952
21.054688,-0.12460064
21.062500,-0.11182109
21.070312,-0.11182109
21.078125,-0.11182109
21.085938,-0.11182109
21.093750,-0.10543131
21.101562,-0.11182109
21.109375,-0.09904153
21.117188,-0.09904153
21.125000,-0.09904153
21.132812,-0.09904153
21.140625,-0.09904153
21.148438,-0.09265176
21.156250,-0.07987220
21.164062,-0.08626198
21.171875,-0.09265176
21.179688,-0.07348243
21.187500,-0.07348243
21.195312,-0.06709265
21.203125,-0.06070288
21.210938,-0.04792332
21.218750,-0.04153355
21.226562,-0.02875399
21.234375,-0.01597444
21.242188,-0.00319489
21.250000,0.01597444
21.257812,0.03514377
21.265625,0.04792332
21.273438,0.07348243
21.281250,0.10543131
21.289062,0.13099042
21.296875,0.14376997
21.304688,0.15654952
21.312500,0.16932907
21.320312,0.16293930
21.328125,0.15015974
21.335938,0.12460064
21.343750,0.07987220
21.351562,0.04792332
21.359375,0.01597444
21.367188,-0.02875399
21.375000,-0.06709265
21.382812,-0.09265176
21.390625,-0.11821086
21.398438,-0.12460064
21.406250,-0.11821086
21.414062,-0.13738019
21.421875,-0.14376997
21.429688,-0.15015974
21.437500,-0.13738019
21.445312,-0.14376997
21.453125,-0.13738019
21.460938,-0.12460064
21.468750,-0.12460064
21.476562,-0.12460064
21.484375,-0.11821086
21.492188,-0.11182109
21.500000,-0.10543131
21.507812,-0.09904153
21.515625,-0.09265176
21.523438,-0.07987220
21.531250,-0.08626198
21.539062,-0.08626198
21.546875,-0.07987220
21.554688,-0.08626198
21.562500,-0.07348243
21.570312,-0.09265176
21.578125,-0.09265176
21.585938,-0.07987220
21.593750,-0.08626198
21.601562,-0.09904153
21.609375,-0.09265176
21.617188,-0.07987220
21.625000,-0.07348243
21.632812,-0.07348243
21.640625,-0.09904153
21.648438,-0.10543131
21.656250,-0.07987220
21.664062,-0.07987220
21.671875,-0.07987220
21.679688,-0.07348243
21.687500,-0.06070288
21.695312,-0.04792332
21.703125,-0.03514377
21.710938,-0.02236422
21.718750,-0.02875399
21.726562,-0.02875399
21.734375,-0.04792332
21.742188,-0.04153355
21.750000,-0.04153355
21.757812,-0.04153355
21.765625,-0.02875399
21.773438,-0.04153355
21.781250,-0.05431310
21.789062,-0.07348243
21.796875,-0.08626198
21.804688,-0.08626198
21.812500,-0.08626198
21.820312,-0.07987220
21.828125,-0.07348243
21.835938,-0.06070288
21.843750,-0.05431310
21.851562,-0.08626198
21.859375,-0.02236422
21.867188,0.13738019
21.875000,0.50798722
21.882812,0.90415335
21.890625,0.96166134
21.898438,0.71246006
21.906250,0.30351438
21.914062,-0.10543131
21.921875,-0.38019169
21.929688,-0.33546326
21.937500,-0.30990415
21.945312,-0.30351438
21.953125,-0.27156550
21.960938,-0.22044728
21.968750,-0.14376997
21.976562,-0.08626198
21.984375,-0.07987220
21.992188,-0.08626198
22.000000,-0.09265176
22.007812,-0.06070288
22.015625,-0.07987220
22.023438,-0.07348243
22.031250,-0.06709265
22.039062,-0.06070288
22.046875,-0.05431310
22.054688,-0.05431310
22.062500,-0.06070288
22.070312,-0.04792332
22.078125,-0.04792332
22.085938,-0.04792332
22.093750,-0.02236422
22.101562,-0.02875399
22.109375,-0.00319489
22.117188,0.00319489
22.125000,-0.00319489
22.132812,0.01597444
22.140625,0.02236422
22.148438,0.04153355
22.156250,0.06070288
22.164062,0.07987220
22.171875,0.10543131
22.179688,0.13099042
22.187500,0.14376997
22.195312,0.16932907
22.203125,0.20766773
22.210938,0.24600639
22.218750,0.26517572
22.226562,0.25878594
22.234375,0.26517572
22.242188,0.26517572
22.250000,0.23322684
22.257812,0.20127796
22.265625,0.15015974
22.273438,0.07987220
22.281250,0.04153355
22.289062,0.01597444
22.296875,-0.01597444
22.304688,-0.02875399
22.312500,-0.06070288
22.320312,-0.07348243
22.328125,-0.07348243
22.335938,-0.07987220
22.343750,-0.07348243
22.351562,-0.08626198
22.359375,-0.07348243
22.367188,-0.07348243
22.375000,-0.07348243
22.382812,-0.06709265
22.390625,-0.05431310
22.398438,-0.06070288
22.406250,-0.07348243
22.414062,-0.04153355
22.421875,-0.02236422
22.429688,-0.02875399
22.437500,-0.01597444
22.445312,-0.01597444
22.453125,-0.02875399
22.460938,-0.02236422
22.468750,-0.02236422
22.476562,-0.02236422
22.484375,-0.00958466
22.492188,-0.02875399
22.500000,-0.02875399
22.507812,-0.02875399
22.515625,-0.02875399
22.523438,-0.02875399
22.531250,-0.02236422
22.539062,-0.04153355
22.546875,-0.03514377
22.554688,-0.02875399
22.562500,-0.02875399
22.570312,-0.03514377
22.578125,-0.04153355
22.585938,-0.04153355
22.593750,-0.04153355
22.601562,-0.02236422
22.609375,-0.00958466
22.617188,-0.00319489
22.625000,0.00319489
22.632812,0.00958466
22.640625,-0.00319489
22.648438,-0.00319489
22.656250,-0.01597444
22.664062,0.00958466
22.671875,0.02236422
22.679688,0.00319489
22.687500,-0.00319489
22.695312,-0.00319489
22.703125,-0.02875399
22.710938,-0.03514377
22.718750,-0.04792332
22.726562,-0.05431310
22.734375,-0.04792332
22.742188,-0.02875399
22.750000,-0.03514377
22.757812,-0.03514377
22.765625,-0.04153355
22.773438,-0.03514377
22.781250,0.06070288
22.789062,0.31629393
22.796875,0.72204473
22.804688,1.00000000
22.812500,0.97444089
22.820312,0.56549521
22.828125,0.15654952
22.835938,-0.25239617
22.843750,-0.39297125
22.851562,-0.35463259
22.859375,-0.30990415
22.867188,-0.30990415
22.875000,-0.25878594
22.882812,-0.20127796
22.890625,-0.09904153
22.898438,-0.07987220
22.906250,-0.06709265
22.914062,-0.06709265
22.921875,-0.06709265
22.929688,-0.06070288
22.937500,-0.04792332
22.945312,-0.05431310
22.953125,-0.06070288
22.960938,-0.04792332
22.968750,-0.05431310
22.976562,-0.05431310
22.984375,-0.04153355
22.992188,-0.04153355
23.000000,-0.03514377
23.007812,-0.03514377
23.015625,-0.03514377
23.023438,-0.02875399
23.031250,-0.02236422
23.039062,-0.02236422
23.046875,-0.00958466
23.054688,0.00319489
23.062500,0.00958466
23.070312,0.02236422
23.078125,0.02875399
23.085938,0.04792332
23.093750,0.06709265
23.101562,0.07987220
23.109375,0.11821086
23.117188,0.13738019
23.125000,0.16293930
23.132812,0.18210863
23.140625,0.18210863
23.148438,0.20127796
23.156250,0.20127796
23.164062,0.18849840
23.171875,0.17571885
23.179688,0.14376997
23.187500,0.09265176
23.195312,0.04153355
23.203125,-0.01597444
23.210938,-0.02875399
23.218750,-0.06070288
23.226562,-0.08626198
23.234375,-0.10543131
23.242188,-0.11182109
23.250000,-0.13099042
23.257812,-0.13099042
23.265625,-0.14376997
23.273438,-0.12460064
23.281250,-0.13099042
23.289062,-0.12460064
23.296875,-0.12460064
23.304688,-0.12460064
23.312500,-0.12460064
23.320312,-0.10543131
23.328125,-0.11182109
23.335938,-0.09904153
23.343750,-0.09265176
23.351562,-0.09904153
23.359375,-0.08626198
23.367188,-0.08626198
23.375000,-0.07987220
23.382812,-0.07987220
23.390625,-0.08626198
23.398438,-0.08626198
23.406250,-0.09265176
23.414062,-0.09265176
23.421875,-0.09265176
23.429688,-0.09904153
23.437500,-0.09904153
23.445312,-0.09904153
23.453125,-0.09904153
23.460938,-0.08626198
23.468750,-0.09904153
23.476562,-0.09904153
23.484375,-0.09904153
23.492188,-0.09265176
23.500000,-0.09265176
23.507812,-0.09265176
23.515625,-0.10543131
23.523438,-0.09265176
23.531250,-0.07987220
23.539062,-0.06709265
23.546875,-0.05431310
23.554688,-0.04153355
23.562500,-0.04792332
23.570312,-0.06070288
23.578125,-0.06070288
23.585938,-0.04792332
23.593750,-0.06070288
23.601562,-0.06709265
23.609375,-0.06709265
23.617188,-0.07348243
23.625000,-0.09265176
23.632812,-0.10543131
23.640625,-0.11182109
23.648438,-0.11182109
23.656250,-0.11182109
23.664062,-0.10543131
23.671875,-0.09265176
23.679688,-0.09265176
23.687500,-0.11821086
23.695312,-0.07348243
23.703125,0.04153355
23.710938,0.39297125
23.718750,0.79872204
23.726562,0.95527157
23.734375,0.77635783
23.742188,0.36741214
23.750000,-0.04153355
23.757812,-0.42492013
23.765625,-0.39936102
23.773438,-0.36741214
23.781250,-0.39297125
23.789062,-0.36102236
23.796875,-0.30990415
23.804688,-0.18849840
23.812500,-0.13738019
23.820312,-0.13738019
23.828125,-0.13738019
23.835938,-0.13099042
23.843750,-0.11182109
23.851562,-0.14376997
23.859375,-0.12460064
23.867188,-0.13099042
23.875000,-0.13099042
23.882812,-0.10543131
23.890625,-0.12460064
23.898438,-0.11821086
23.906250,-0.09904153
23.914062,-0.10543131
23.921875,-0.09904153
23.929688,-0.09265176
23.937500,-0.07987220
23.945312,-0.07348243
23.953125,-0.07348243
23.960938,-0.06709265
23.968750,-0.06070288
23.976562,-0.04792332
23.984375,-0.04153355
23.992188,-0.01597444
24.000000,-0.02236422
24.007812,-0.00958466
24.015625,0.01597444
24.023438,0.01597444
24.031250,0.02875399
24.039062,0.03514377
24.046875,0.09904153
24.054688,0.10543131
24.062500,0.11182109
24.070312,0.12460064
24.078125,0.12460064
24.085938,0.12460064
24.093750,0.11821086
24.101562,0.08626198
24.109375,0.06709265
24.117188,0.02236422
24.125000,-0.00958466
24.132812,-0.03514377
24.140625,-0.07348243
24.148438,-0.08626198
24.156250,-0.12460064
24.164062,-0.10543131
24.171875,-0.15654952
24.179688,-0.13099042
24.187500,-0.11182109
24.195312,-0.13099042
24.203125,-0.13099042
24.210938,-0.11182109
24.218750,-0.11821086
24.226562,-0.09904153
24.234375,-0.09904153
24.242188,-0.09265176
24.250000,-0.09904153
24.257812,-0.09265176
24.265625,-0.11182109
24.273438,-0.09265176
24.281250,-0.07348243
24.289062,-0.07348243
24.296875,-0.07348243
24.304688,-0.08626198
24.312500,-0.05431310
24.320312,-0.09265176
24.328125,-0.09265176
24.335938,-0.10543131
24.343750,-0.08626198
24.351562,-0.08626198
24.359375,-0.07987220
24.367188,-0.07987220
24.375000,-0.06709265
24.382812,-0.06070288
24.390625,-0.09904153
24.398438,-0.07987220
24.406250,-0.07987220
24.414062,-0.08626198
24.421875,-0.08626198
24.429688,-0.07987220
24.437500,-0.06070288
24.445312,-0.06070288
24.453125,-0.06709265
24.460938,-0.05431310
24.468750,-0.03514377
24.476562,-0.00958466
24.484375,0.01597444
24.492188,-0.04153355
24.500000,-0.06709265
24.507812,-0.04153355
24.515625,-0.02236422
24.523438,-0.04153355
24.531250,-0.09265176
24.539062,-0.08626198
24.546875,-0.08626198
24.554688,-0.06709265
24.562500,-0.05431310
24.570312,-0.09904153
24.578125,-0.09265176
24.585938,-0.07987220
24.593750,-0.06709265
24.601562,-0.09265176
24.609375,-0.06070288
24.617188,0.02875399
24.625000,0.24600639
24.632812,0.65175719
24.640625,0.88498403
24.648438,0.75718850
24.656250,0.34824281
24.664062,-0.06070288
24.671875,-0.34824281
24.679688,-0.30351438
24.687500,-0.28434505
24.695312,-0.28434505
24.703125,-0.30990415
24.710938,-0.22683706
24.718750,-0.15015974
24.726562,-0.09265176
24.734375,-0.09904153
24.742188,-0.09265176
24.750000,-0.10543131
24.757812,-0.06709265
24.765625,-0.06070288
24.773438,-0.06070288
24.781250,-0.04153355
24.789062,-0.06709265
24.796875,-0.06709265
24.804688,-0.06709265
24.812500,-0.06070288
24.820312,-0.04792332
24.828125,-0.05431310
24.835938,-0.05431310
24.843750,-0.03514377
24.851562,-0.03514377
24.859375,-0.02875399
24.867188,-0.02236422
24.875000,0.00319489
24.882812,-0.02236422
24.890625,-0.00319489
24.898438,0.00319489
24.906250,0.02236422
24.914062,0.03514377
24.921875,0.06070288
24.929688,0.06709265
24.937500,0.09265176
24.945312,0.09904153
24.953125,0.11821086
24.960938,0.14376997
24.968750,0.18210863
24.976562,0.18849840
24.984375,0.19488818
24.992188,0.20127796
25.000000,0.20127796
25.007812,0.18210863
25.015625,0.14376997
25.023438,0.12460064
25.031250,0.07348243
25.039062,0.02875399
25.046875,0.01597444
25.054688,-0.02236422
25.062500,-0.02875399
25.070312,-0.04792332
25.078125,-0.06709265
25.085938,-0.07348243
25.093750,-0.06709265
25.101562,-0.07987220
25.109375,-0.06070288
25.117188,-0.07348243
25.125000,-0.06070288
25.132812,-0.07348243
25.140625,-0.05431310
25.148438,-0.07348243
25.156250,-0.06070288
25.164062,-0.07348243
25.171875,-0.02875399
25.179688,-0.02236422
25.187500,-0.02875399
25.195312,-0.02236422
25.203125,-0.04153355
25.210938,-0.04792332
25.218750,-0.03514377
25.226562,-0.03514377
25.234375,-0.01597444
25.242188,-0.03514377
25.250000,-0.03514377
25.257812,-0.04792332
25.265625,-0.04792332
25.273438,-0.03514377
25.281250,-0.04153355
25.289062,-0.05431310
25.296875,-0.04792332
25.304688,-0.04153355
25.312500,-0.05431310
25.320312,-0.04792332
25.328125,-0.06070288
25.335938,-0.03514377
25.343750,-0.04153355
25.351562,-0.04792332
25.359375,-0.02236422
25.367188,-0.02875399
25.375000,-0.01597444
25.382812,-0.00958466
25.390625,-0.00319489
25.398438,-0.01597444
25.406250,-0.02236422
25.414062,-0.00319489
25.421875,0.00319489
25.429688,-0.01597444
25.437500,-0.01597444
25.445312,-0.02875399
25.453125,-0.03514377
25.460938,-0.04153355
25.468750,-0.06709265
25.476562,-0.07348243
25.484375,-0.06709265
25.492188,-0.05431310
25.500000,-0.05431310
25.507812,-0.04792332
25.515625,-0.06709265
25.523438,-0.06070288
25.531250,0.04792332
25.539062,0.27156550
25.546875,0.67731629
25.554688,0.94888179
25.562500,0.88498403
25.570312,0.47603834
25.578125,0.06709265
25.585938,-0.34185304
25.593750,-0.32268371
25.601562,-0.34824281
25.609375,-0.32907348
25.617188,-0.32268371
25.625000,-0.27795527
25.632812,-0.22683706
25.640625,-0.12460064
25.648438,-0.09265176
25.656250,-0.07987220
25.664062,-0.09265176
25.671875,-0.07987220
25.679688,-0.07987220
25.687500,-0.07348243
25.695312,-0.07987220
25.703125,-0.07987220
25.710938,-0.06070288
25.718750,-0.05431310
25.726562,-0.06709265
25.734375,-0.06709265
25.742188,-0.04792332
25.750000,-0.04792332
25.757812,-0.05431310
25.765625,-0.04792332
25.773438,-0.02236422
25.781250,-0.04792332
25.789062,-0.02875399
25.796875,-0.03514377
25.804688,0.00319489
25.812500,0.02875399
25.820312,-0.04153355
25.828125,-0.05431310
25.835938,0.03514377
25.843750,0.06070288
25.851562,0.07987220
25.859375,0.08626198
25.867188,0.11182109
25.875000,0.13099042
25.882812,0.13099042
25.890625,0.16293930
25.898438,0.16293930
25.906250,0.16293930
25.914062,0.14376997
25.921875,0.13738019
25.929688,0.10543131
25.937500,0.09265176
25.945312,0.02875399
25.953125,-0.02875399
25.960938,-0.06709265
25.968750,-0.07348243
25.976562,-0.07987220
25.984375,-0.10543131
25.992188,-0.12460064
26.000000,-0.13099042
26.007812,-0.13738019
26.015625,-0.11821086
26.023438,-0.13099042
26.031250,-0.15015974
26.039062,-0.12460064
26.046875,-0.09904153
26.054688,-0.09904153
26.062500,-0.10543131
26.070312,-0.09265176
26.078125,-0.09265176
26.085938,-0.09265176
26.093750,-0.09904153
26.101562,-0.09265176
26.109375,-0.08626198
26.117188,-0.08626198
26.125000,-0.08626198
26.132812,-0.09265176
26.140625,-0.09904153
26.148438,-0.06070288
26.156250,-0.08626198
26.164062,-0.12460064
26.171875,-0.11182109
26.179688,-0.10543131
26.187500,-0.10543131
26.195312,-0.09904153
26.203125,-0.10543131
26.210938,-0.09904153
26.218750,-0.11182109
26.226562,-0.09904153
26.234375,-0.10543131
26.242188,-0.09904153
26.250000,-0.10543131
26.257812,-0.09904153
26.265625,-0.11182109
26.273438,-0.11182109
26.281250,-0.10543131
26.289062,-0.11821086
26.296875,-0.10543131
26.304688,-0.05431310
26.312500,-0.04792332
26.320312,-0.05431310
26.328125,-0.05431310
26.335938,-0.06709265
26.343750,-0.05431310
26.351562,-0.06709265
26.359375,-0.06070288
26.367188,-0.07987220
26.375000,-0.06709265
26.382812,-0.09265176
26.390625,-0.11821086
26.398438,-0.11821086
26.406250,-0.11821086
26.414062,-0.10543131
26.421875,-0.10543131
26.429688,-0.10543131
26.437500,-0.10543131
26.445312,-0.09904153
26.453125,-0.11182109
26.460938,-0.02236422
26.468750,0.12460064
26.476562,0.53035144
26.484375,0.87220447
26.492188,0.85303514
26.500000,0.45686901
26.507812,0.04792332
26.515625,-0.36102236
26.523438,-0.39297125
26.531250,-0.36102236
26.539062,-0.37380192
26.546875,-0.39936102
26.554688,-0.34824281
26.562500,-0.23961661
26.570312,-0.14376997
26.578125,-0.13738019
26.585938,-0.13099042
26.593750,-0.13738019
26.601562,-0.13738019
26.609375,-0.10543131
26.617188,-0.09904153
26.625000,-0.11182109
26.632812,-0.11182109
26.640625,-0.11182109
26.648438,-0.09265176
26.656250,-0.09265176
26.664062,-0.08626198
26.671875,-0.08626198
26.679688,-0.07348243
26.687500,-0.07348243
26.695312,-0.07987220
26.703125,-0.07348243
26.710938,-0.06709265
26.718750,-0.06709265
26.726562,-0.05431310
26.734375,-0.04153355
26.742188,-0.03514377
26.750000,-0.03514377
26.757812,-0.02236422
26.765625,-0.00958466
26.773438,0.01597444
26.781250,0.02875399
26.789062,0.04792332
26.796875,0.06709265
26.804688,0.07987220
26.812500,0.09265176
26.820312,0.09904153
26.828125,0.09265176
26.835938,0.14376997
26.843750,0.16293930
26.851562,0.13099042
26.859375,0.09265176
26.867188,0.04792332
26.875000,0.02236422
26.882812,-0.00958466
26.890625,-0.03514377
26.898438,-0.05431310
26.906250,-0.06709265
26.914062,-0.08626198
26.921875,-0.08626198
26.929688,-0.09904153
26.937500,-0.09265176
26.945312,-0.09265176
26.953125,-0.08626198
26.960938,-0.09265176
26.968750,-0.07987220
26.976562,-0.08626198
26.984375,-0.07348243
26.992188,-0.07348243
27.000000,-0.07348243
27.007812,-0.06709265
27.015625,-0.07348243
27.023438,-0.06070288
27.031250,-0.06709265
27.039062,-0.05431310
27.046875,-0.07348243
27.054688,-0.06070288
27.062500,-0.05431310
27.070312,-0.06070288
27.078125,-0.06709265
27.085938,-0.06709265
27.093750,-0.06070288
27.101562,-0.06070288
27.109375,-0.04792332
27.117188,-0.05431310
27.125000,-0.06709265
27.132812,-0.06709265
27.140625,-0.07348243
27.148438,-0.06709265
27.156250,-0.06709265
27.164062,-0.06709265
27.171875,-0.05431310
27.179688,-0.05431310
27.187500,-0.04153355
27.195312,-0.05431310
27.203125,-0.05431310
27.210938,-0.05431310
27.218750,-0.04153355
27.226562,-0.01597444
27.234375,-0.00319489
27.242188,0.01597444
27.250000,-0.01597444
27.257812,-0.02236422
27.265625,-0.01597444
27.273438,-0.00319489
27.281250,-0.01597444
27.289062,-0.01597444
27.296875,-0.02236422
27.304688,-0.04153355
27.312500,-0.05431310
27.320312,-0.05431310
27.328125,-0.06070288
27.335938,-0.04792332
27.343750,-0.04792332
27.351562,-0.03514377
27.359375,-0.04153355
27.367188,-0.05431310
27.375000,-0.04153355
27.382812,0.03514377
27.390625,0.22044728
27.398438,0.62619808
27.406250,0.87220447
27.414062,0.79552716
27.421875,0.40575080
27.429688,-0.00319489
27.437500,-0.30351438
27.445312,-0.29073482
27.453125,-0.27795527
27.460938,-0.26517572
27.468750,-0.27156550
27.476562,-0.21405751
27.484375,-0.16293930
27.492188,-0.07348243
27.500000,-0.06070288
27.507812,-0.06070288
27.515625,-0.06709265
27.523438,-0.05431310
27.531250,-0.04792332
27.539062,-0.04792332
27.546875,-0.04792332
27.554688,-0.04153355
27.562500,-0.02875399
27.570312,-0.04153355
27.578125,-0.03514377
27.585938,-0.02875399
27.593750,-0.01597444
27.601562,-0.01597444
27.609375,-0.02875399
27.617188,-0.01597444
27.625000,-0.01597444
27.632812,0.00958466
27.640625,0.00958466
27.648438,0.01597444
27.656250,0.03514377
27.664062,0.03514377
27.671875,0.04792332
27.679688,0.05431310
27.687500,0.09265176
27.695312,0.08626198
27.703125,0.11182109
27.710938,0.14376997
27.718750,0.15654952
27.726562,0.16932907
27.734375,0.20127796
27.742188,0.20766773
27.750000,0.23322684
27.757812,0.22683706
27.765625,0.21405751
27.773438,0.20127796
27.781250,0.16932907
27.789062,0.13099042
27.796875,0.08626198
27.804688,0.04153355
27.812500,0.00319489
27.820312,-0.01597444
27.828125,-0.04792332
27.835938,-0.05431310
27.843750,-0.06070288
27.851562,-0.06709265
27.859375,-0.06709265
27.867188,-0.07348243
27.875000,-0.06709265
27.882812,-0.06709265
27.890625,-0.06709265
27.898438,-0.06709265
27.906250,-0.05431310
27.914062,-0.06070288
27.921875,-0.03514377
27.929688,-0.04153355
27.937500,-0.04153355
27.945312,-0.04153355
27.953125,-0.06070288
27.960938,-0.04153355
27.968750,-0.04153355
27.976562,-0.03514377
27.984375,-0.03514377
27.992188,-0.04153355
28.000000,-0.05431310
28.007812,-0.04792332
28.015625,-0.06709265
28.023438,-0.06070288
28.031250,-0.06070288
28.039062,-0.06070288
28.046875,-0.07348243
28.054688,-0.07348243
28.062500,-0.07348243
28.070312,-0.07348243
28.078125,-0.07348243
28.085938,-0.07348243
28.093750,-0.06709265
28.101562,-0.07987220
28.109375,-0.06709265
28.117188,-0.08626198
28.125000,-0.07987220
28.132812,-0.07987220
28.140625,-0.07348243
28.148438,-0.06070288
28.156250,-0.05431310
28.164062,-0.03514377
28.171875,-0.02236422
28.179688,-0.04153355
28.187500,-0.04792332
28.195312,-0.03514377
28.203125,-0.04792332
28.210938,-0.05431310
28.218750,-0.05431310
28.226562,-0.04792332
28.234375,-0.06709265
28.242188,-0.08626198
28.250000,-0.09904153
28.257812,-0.11182109
28.265625,-0.09904153
28.273438,-0.10543131
28.281250,-0.08626198
28.289062,-0.08626198
28.296875,-0.07987220
28.304688,-0.10543131
28.312500,-0.06709265
28.320312,0.03514377
28.328125,0.32268371
28.335938,0.72843450
28.343750,0.91054313
28.351562,0.68690096
28.359375,0.27795527
28.367188,-0.13099042
28.375000,-0.39297125
28.382812,-0.36102236
28.390625,-0.34824281
28.398438,-0.37380192
28.406250,-0.34185304
28.414062,-0.29073482
28.421875,-0.14376997
28.429688,-0.11182109
28.437500,-0.13099042
28.445312,-0.11821086
28.453125,-0.12460064
28.460938,-0.11821086
28.468750,-0.11182109
28.476562,-0.10543131
28.484375,-0.10543131
28.492188,-0.09904153
28.500000,-0.08626198
28.507812,-0.09265176
28.515625,-0.08626198
28.523438,-0.09265176
28.531250,-0.07987220
28.539062,-0.08626198
28.546875,-0.07348243
28.554688,-0.07348243
28.562500,-0.06070288
28.570312,-0.06070288
28.578125,-0.04792332
28.585938,-0.04792332
28.593750,-0.03514377
28.601562,-0.02875399
28.609375,-0.01597444
28.617188,0.00319489
28.625000,0.00958466
28.632812,0.02236422
28.640625,0.03514377
28.648438,0.06070288
28.656250,0.08626198
28.664062,0.10543131
28.671875,0.13738019
28.679688,0.14376997
28.687500,0.13738019
28.695312,0.12460064
28.703125,0.11821086
28.710938,0.10543131
28.718750,0.07348243
28.726562,0.02875399
28.734375,-0.00319489
28.742188,-0.02875399
28.750000,-0.06709265
28.757812,-0.07348243
28.765625,-0.09265176
28.773438,-0.09904153
28.781250,-0.10543131
28.789062,-0.10543131
28.796875,-0.10543131
28.804688,-0.09904153
28.812500,-0.09904153
28.820312,-0.09904153
28.828125,-0.10543131
28.835938,-0.09265176
28.843750,-0.08626198
28.851562,-0.07987220
28.859375,-0.07348243
28.867188,-0.07348243
28.875000,-0.06709265
28.882812,-0.06709265
28.890625,-0.06070288
28.898438,-0.05431310
28.906250,-0.04792332
28.914062,-0.07348243
28.921875,-0.07348243
28.929688,-0.07348243
28.937500,-0.06070288
28.945312,-0.06709265
28.953125,-0.06709265
28.960938,-0.06709265
28.968750,-0.06709265
28.976562,-0.06709265
28.984375,-0.07348243
28.992188,-0.06070288
29.000000,-0.06070288
29.007812,-0.06070288
29.015625,-0.07348243
29.023438,-0.06709265
29.031250,-0.06709265
29.039062,-0.06709265
29.046875,-0.06070288
29.054688,-0.05431310
29.062500,-0.05431310
29.070312,-0.04153355
29.078125,-0.03514377
29.085938,-0.00958466
29.093750,-0.00319489
29.101562,-0.00958466
29.109375,-0.02236422
29.117188,-0.01597444
29.125000,-0.01597444
29.132812,-0.02875399
29.140625,-0.04153355
29.148438,-0.04153355
29.156250,-0.04792332
29.164062,-0.07987220
29.171875,-0.07987220
29.179688,-0.07987220
29.187500,-0.06709265
29.195312,-0.06709265
29.203125,-0.06709265
29.210938,-0.06070288
29.218750,-0.06709265
29.226562,-0.08626198
29.234375,-0.01597444
29.242188,0.13099042
29.250000,0.50798722
29.257812,0.83386581
29.265625,0.84664537
29.273438,0.45686901
29.281250,0.04792332
29.289062,-0.36102236
29.296875,-0.34185304
29.304688,-0.34185304
29.312500,-0.34824281
29.320312,-0.36102236
29.328125,-0.29712460
29.335938,-0.13738019
29.343750,-0.07987220
29.351562,-0.08626198
29.359375,-0.09265176
29.367188,-0.08626198
29.375000,-0.07987220
29.382812,-0.07987220
29.390625,-0.07987220
29.398438,-0.08626198
29.406250,-0.06070288
29.414062,-0.05431310
29.421875,-0.04153355
29.429688,-0.05431310
29.437500,-0.04792332
29.445312,-0.04792332
29.453125,-0.04792332
29.460938,-0.04792332
29.468750,-0.04792332
29.476562,-0.04792332
29.484375,-0.03514377
29.492188,-0.01597444
29.500000,-0.02236422
29.507812,-0.02236422
29.515625,-0.00319489
29.523438,0.00319489
29.531250,0.00319489
29.539062,0.01597444
29.546875,0.02875399
29.554688,0.04792332
29.562500,0.06070288
29.570312,0.09265176
29.578125,0.09265176
29.585938,0.11821086
29.593750,0.13738019
29.601562,0.15015974
29.609375,0.16293930
29.617188,0.15015974
29.625000,0.15654952
29.632812,0.13738019
29.640625,0.11182109
29.648438,0.07348243
29.656250,0.04153355
29.664062,0.00958466
29.671875,-0.00958466
29.679688,-0.02875399
29.687500,-0.03514377
29.695312,-0.04792332
29.703125,-0.05431310
29.710938,-0.05431310
29.718750,-0.05431310
29.726562,-0.04792332
29.734375,-0.04792332
29.742188,-0.04792332
29.750000,-0.04792332
29.757812,-0.04153355
29.765625,-0.04153355
29.773438,-0.02875399
29.781250,-0.02875399
29.789062,-0.02875399
29.796875,-0.02236422
29.804688,-0.02236422
29.812500,-0.02236422
29.820312,-0.00958466
29.828125,-0.02236422
29.835938,-0.01597444
29.843750,-0.02236422
29.851562,-0.02875399
29.859375,-0.02875399
29.867188,-0.03514377
29.875000,-0.01597444
29.882812,-0.01597444
29.890625,-0.02236422
29.898438,-0.02236422
29.906250,-0.02236422
29.914062,-0.01597444
29.921875,-0.01597444
29.929688,-0.01597444
29.937500,-0.00319489
29.945312,-0.02236422
29.953125,-0.02236422
29.960938,-0.02236422
29.968750,-0.00319489
29.976562,-0.00319489
29.984375,-0.00958466
29.992188,-0.00958466
