time,amplitude,sr,250.0
0.000000,-0.09250399
0.004000,-0.08612440
0.008000,-0.06220096
0.012000,-0.06060606
0.016000,-0.04784689
0.020000,-0.04465710
0.024000,-0.03349282
0.028000,-0.00797448
0.032000,0.03508772
0.036000,0.11642743
0.040000,0.23125997
0.044000,0.38915470
0.048000,0.55661882
0.052000,0.69696970
0.056000,0.77830941
0.060000,0.75438596
0.064000,0.64433812
0.068000,0.45933014
0.072000,0.25518341
0.076000,0.06379585
0.080000,-0.04306220
0.084000,-0.10845295
0.088000,-0.13397129
0.092000,-0.11802233
0.096000,-0.10845295
0.100000,-0.11642743
0.104000,-0.13556619
0.108000,-0.13875598
0.112000,-0.12440191
0.116000,-0.11961722
0.120000,-0.14194577
0.124000,-0.14992026
0.128000,-0.14035088
0.132000,-0.12121212
0.136000,-0.11642743
0.140000,-0.13078150
0.144000,-0.14354067
0.148000,-0.15311005
0.152000,-0.15311005
0.156000,-0.15470494
0.160000,-0.14513557
0.164000,-0.14992026
0.168000,-0.15789474
0.172000,-0.16905901
0.176000,-0.17065391
0.180000,-0.15948963
0.184000,-0.13397129
0.188000,-0.12759171
0.192000,-0.15151515
0.196000,-0.16746411
0.200000,-0.16267943
0.204000,-0.13556619
0.208000,-0.12280702
0.212000,-0.12918660
0.216000,-0.13556619
0.220000,-0.13237640
0.224000,-0.14354067
0.228000,-0.15789474
0.232000,-0.16267943
0.236000,-0.15789474
0.240000,-0.14513557
0.244000,-0.14194577
0.248000,-0.14992026
0.252000,-0.17862839
0.256000,-0.19936204
0.260000,-0.18500797
0.264000,-0.16267943
0.268000,-0.16267943
0.272000,-0.19138756
0.276000,-0.19457735
0.280000,-0.18660287
0.284000,-0.16427432
0.288000,-0.14194577
0.292000,-0.11323764
0.296000,-0.08771930
0.300000,-0.07655502
0.304000,-0.06698565
0.308000,-0.07336523
0.312000,-0.07974482
0.316000,-0.07017544
0.320000,-0.05741627
0.324000,-0.03987241
0.328000,-0.03987241
0.332000,-0.03668262
0.336000,-0.02392344
0.340000,-0.01116427
0.344000,-0.00956938
0.348000,-0.03349282
0.352000,-0.05103668
0.356000,-0.05901116
0.360000,-0.05103668
0.364000,-0.02870813
0.368000,-0.00956938
0.372000,-0.00637959
0.376000,-0.02073365
0.380000,-0.02711324
0.384000,-0.02073365
0.388000,-0.00956938
0.392000,-0.00318979
0.396000,-0.00159490
0.400000,0.00478469
0.404000,0.00478469
0.408000,0.01435407
0.412000,0.02073365
0.416000,0.01913876
0.420000,0.01594896
0.424000,0.02870813
0.428000,0.04146730
0.432000,0.03987241
0.436000,0.02711324
0.440000,0.00956938
0.444000,0.00159490
0.448000,-0.01594896
0.452000,-0.04625199
0.456000,-0.05582137
0.460000,-0.05901116
0.464000,-0.04625199
0.468000,-0.02551834
0.472000,-0.01754386
0.476000,-0.02392344
0.480000,-0.05263158
0.484000,-0.07177033
0.488000,-0.06858054
0.492000,-0.05422648
0.496000,-0.03349282
0.500000,-0.01435407
0.504000,-0.00159490
0.508000,0.01754386
0.512000,0.02711324
0.516000,0.03030303
0.520000,0.01754386
0.524000,-0.01913876
0.528000,-0.04146730
0.532000,-0.04465710
0.536000,-0.01913876
0.540000,-0.00956938
0.544000,-0.00637959
0.548000,-0.01116427
0.552000,-0.02870813
0.556000,-0.03189793
0.560000,-0.01594896
0.564000,-0.00318979
0.568000,0.00159490
0.572000,-0.01913876
0.576000,-0.03987241
0.580000,-0.05103668
0.584000,-0.03668262
0.588000,-0.03349282
0.592000,-0.00159490
0.596000,0.03827751
0.600000,0.13078150
0.604000,0.26315789
0.608000,0.41945774
0.612000,0.57416268
0.616000,0.69696970
0.620000,0.76555024
0.624000,0.77511962
0.628000,0.71132376
0.632000,0.58054226
0.636000,0.37639553
0.640000,0.17224880
0.644000,0.00478469
0.648000,-0.05582137
0.652000,-0.06379585
0.656000,-0.04306220
0.660000,-0.03349282
0.664000,-0.05422648
0.668000,-0.07655502
0.672000,-0.08931419
0.676000,-0.09728868
0.680000,-0.09409888
0.684000,-0.09569378
0.688000,-0.09728868
0.692000,-0.10207337
0.696000,-0.10366826
0.700000,-0.09888357
0.704000,-0.09888357
0.708000,-0.10047847
0.712000,-0.11164274
0.716000,-0.11164274
0.720000,-0.10845295
0.724000,-0.11164274
0.728000,-0.10685805
0.732000,-0.10047847
0.736000,-0.09250399
0.740000,-0.09090909
0.744000,-0.09409888
0.748000,-0.11164274
0.752000,-0.12440191
0.756000,-0.11642743
0.760000,-0.10845295
0.764000,-0.09569378
0.768000,-0.10207337
0.772000,-0.09888357
0.776000,-0.09409888
0.780000,-0.08771930
0.784000,-0.10366826
0.788000,-0.10207337
0.792000,-0.11483254
0.796000,-0.12440191
0.800000,-0.11802233
0.804000,-0.11961722
0.808000,-0.12440191
0.812000,-0.13716108
0.816000,-0.14673046
0.820000,-0.15948963
0.824000,-0.14513557
0.828000,-0.13716108
0.832000,-0.12599681
0.836000,-0.12599681
0.840000,-0.12918660
0.844000,-0.14673046
0.848000,-0.14035088
0.852000,-0.12121212
0.856000,-0.09888357
0.860000,-0.08931419
0.864000,-0.07974482
0.868000,-0.06379585
0.872000,-0.03827751
0.876000,-0.02232855
0.880000,-0.01435407
0.884000,-0.00159490
0.888000,-0.00478469
0.892000,-0.00478469
0.896000,-0.00956938
0.900000,-0.01435407
0.904000,-0.01594896
0.908000,-0.02073365
0.912000,-0.02870813
0.916000,-0.02232855
0.920000,-0.01913876
0.924000,-0.01275917
0.928000,-0.00159490
0.932000,0.00318979
0.936000,0.01116427
0.940000,0.02232855
0.944000,0.02073365
0.948000,0.00797448
0.952000,-0.01116427
0.956000,-0.02392344
0.960000,-0.01594896
0.964000,0.01594896
0.968000,0.04306220
0.972000,0.05582137
0.976000,0.06858054
0.980000,0.06539075
0.984000,0.05582137
0.988000,0.03349282
0.992000,0.03030303
0.996000,0.03827751
1.000000,0.04465710
1.004000,0.06060606
1.008000,0.05422648
1.012000,0.04306220
1.016000,0.02551834
1.020000,0.00318979
1.024000,-0.00478469
1.028000,0.00159490
1.032000,0.00797448
1.036000,0.03349282
1.040000,0.04306220
1.044000,0.01594896
1.048000,-0.00318979
1.052000,-0.02073365
1.056000,-0.01116427
1.060000,0.01435407
1.064000,0.02711324
1.068000,0.01116427
1.072000,0.00478469
1.076000,-0.00478469
1.080000,0.00318979
1.084000,0.02551834
1.088000,0.03508772
1.092000,0.04306220
1.096000,0.03827751
1.100000,0.01275917
1.104000,-0.00637959
1.108000,-0.02232855
1.112000,-0.01275917
1.116000,-0.00797448
1.120000,-0.00637959
1.124000,0.00000000
1.128000,-0.01275917
1.132000,-0.01275917
1.136000,-0.02392344
1.140000,-0.02551834
1.144000,-0.03668262
1.148000,-0.04784689
1.152000,-0.03349282
1.156000,-0.01754386
1.160000,0.00478469
1.164000,0.02392344
1.168000,0.03349282
1.172000,0.05103668
1.176000,0.08612440
1.180000,0.16905901
1.184000,0.30940989
1.188000,0.50239234
1.192000,0.68899522
1.196000,0.79904306
1.200000,0.82137161
1.204000,0.74322169
1.208000,0.59489633
1.212000,0.39074960
1.216000,0.18660287
1.220000,-0.01275917
1.224000,-0.09409888
1.228000,-0.09888357
1.232000,-0.04625199
1.236000,-0.00637959
1.240000,-0.00318979
1.244000,-0.03030303
1.248000,-0.06379585
1.252000,-0.08771930
1.256000,-0.08612440
1.260000,-0.07177033
1.264000,-0.06060606
1.268000,-0.06379585
1.272000,-0.05901116
1.276000,-0.06220096
1.280000,-0.06698565
1.284000,-0.07496013
1.288000,-0.07974482
1.292000,-0.07017544
1.296000,-0.06379585
1.300000,-0.06698565
1.304000,-0.08133971
1.308000,-0.09250399
1.312000,-0.08133971
1.316000,-0.07336523
1.320000,-0.07814992
1.324000,-0.09090909
1.328000,-0.08771930
1.332000,-0.07177033
1.336000,-0.07336523
1.340000,-0.07336523
1.344000,-0.07496013
1.348000,-0.08452951
1.352000,-0.09409888
1.356000,-0.08612440
1.360000,-0.07655502
1.364000,-0.06858054
1.368000,-0.07655502
1.372000,-0.07655502
1.376000,-0.09250399
1.380000,-0.11642743
1.384000,-0.13078150
1.388000,-0.13556619
1.392000,-0.12759171
1.396000,-0.12599681
1.400000,-0.11004785
1.404000,-0.10685805
1.408000,-0.10366826
1.412000,-0.11642743
1.416000,-0.11642743
1.420000,-0.11961722
1.424000,-0.10526316
1.428000,-0.08931419
1.432000,-0.06539075
1.436000,-0.04944179
1.440000,-0.03827751
1.444000,-0.03827751
1.448000,-0.02232855
1.452000,-0.00956938
1.456000,-0.00478469
1.460000,0.00159490
1.464000,0.00797448
1.468000,0.02551834
1.472000,0.02551834
1.476000,0.00478469
1.480000,-0.02073365
1.484000,-0.03189793
1.488000,-0.02551834
1.492000,-0.00159490
1.496000,0.02392344
1.500000,0.02870813
1.504000,0.02073365
1.508000,0.00159490
1.512000,-0.03508772
1.516000,-0.03668262
1.520000,-0.01913876
1.524000,0.00797448
1.528000,0.01754386
1.532000,0.03349282
1.536000,0.03827751
1.540000,0.05741627
1.544000,0.05741627
1.548000,0.05422648
1.552000,0.03668262
1.556000,0.02073365
1.560000,0.02392344
1.564000,0.02392344
1.568000,0.03987241
1.572000,0.05422648
1.576000,0.05741627
1.580000,0.04625199
1.584000,0.02551834
1.588000,-0.00159490
1.592000,-0.02232855
1.596000,-0.03189793
1.600000,-0.03030303
1.604000,-0.02711324
1.608000,-0.03349282
1.612000,-0.03349282
1.616000,-0.02551834
1.620000,-0.01913876
1.624000,-0.01435407
1.628000,-0.00956938
1.632000,-0.00637959
1.636000,-0.00637959
1.640000,-0.00318979
1.644000,-0.00159490
1.648000,0.00159490
1.652000,0.00797448
1.656000,0.00956938
1.660000,0.02392344
1.664000,0.02232855
1.668000,0.00159490
1.672000,-0.01754386
1.676000,-0.02073365
1.680000,-0.01754386
1.684000,-0.01594896
1.688000,-0.02232855
1.692000,-0.02551834
1.696000,-0.03189793
1.700000,-0.03827751
1.704000,-0.04306220
1.708000,-0.03508772
1.712000,-0.03508772
1.716000,-0.03987241
1.720000,-0.03189793
1.724000,-0.03189793
1.728000,-0.02711324
1.732000,-0.02551834
1.736000,-0.00318979
1.740000,0.03349282
1.744000,0.09569378
1.748000,0.17543860
1.752000,0.30622010
1.756000,0.48165869
1.760000,0.64912281
1.764000,0.74481659
1.768000,0.76395534
1.772000,0.69377990
1.776000,0.55661882
1.780000,0.35406699
1.784000,0.14992026
1.788000,-0.01913876
1.792000,-0.07974482
1.796000,-0.07336523
1.800000,-0.04784689
1.804000,-0.02232855
1.808000,-0.01913876
1.812000,-0.04306220
1.816000,-0.07814992
1.820000,-0.10047847
1.824000,-0.10845295
1.828000,-0.09409888
1.832000,-0.07814992
1.836000,-0.06060606
1.840000,-0.05901116
1.844000,-0.07496013
1.848000,-0.09409888
1.852000,-0.10207337
1.856000,-0.09728868
1.860000,-0.08931419
1.864000,-0.08931419
1.868000,-0.10685805
1.872000,-0.11323764
1.876000,-0.10845295
1.880000,-0.09728868
1.884000,-0.09090909
1.888000,-0.09409888
1.892000,-0.09569378
1.896000,-0.10207337
1.900000,-0.09569378
1.904000,-0.09569378
1.908000,-0.09728868
1.912000,-0.11483254
1.916000,-0.11483254
1.920000,-0.09569378
1.924000,-0.08931419
1.928000,-0.07177033
1.932000,-0.06858054
1.936000,-0.08771930
1.940000,-0.11164274
1.944000,-0.12599681
1.948000,-0.12440191
1.952000,-0.12759171
1.956000,-0.13237640
1.960000,-0.13875598
1.964000,-0.14194577
1.968000,-0.13397129
1.972000,-0.12280702
1.976000,-0.11164274
1.980000,-0.11802233
1.984000,-0.12759171
1.988000,-0.12759171
1.992000,-0.10845295
1.996000,-0.09728868
2.000000,-0.07655502
2.004000,-0.06379585
2.008000,-0.04944179
2.012000,-0.05422648
2.016000,-0.05263158
2.020000,-0.04306220
2.024000,-0.02551834
2.028000,-0.01116427
2.032000,-0.00637959
2.036000,-0.00637959
2.040000,0.00000000
2.044000,-0.01275917
2.048000,-0.02870813
2.052000,-0.03508772
2.056000,-0.03668262
2.060000,-0.01913876
2.064000,-0.00478469
2.068000,-0.00159490
2.072000,0.00478469
2.076000,-0.00637959
2.080000,-0.02232855
2.084000,-0.01754386
2.088000,-0.01275917
2.092000,0.00956938
2.096000,0.01913876
2.100000,0.00956938
2.104000,-0.00159490
2.108000,-0.01116427
2.112000,-0.00318979
2.116000,0.00478469
2.120000,0.01435407
2.124000,0.02073365
2.128000,0.02711324
2.132000,0.02870813
2.136000,0.02232855
2.140000,0.02711324
2.144000,0.03508772
2.148000,0.02232855
2.152000,0.00637959
2.156000,-0.01594896
2.160000,-0.03189793
2.164000,-0.02711324
2.168000,-0.01594896
2.172000,-0.00318979
2.176000,-0.00318979
2.180000,-0.01435407
2.184000,-0.02551834
2.188000,-0.03189793
2.192000,-0.03508772
2.196000,-0.02551834
2.200000,-0.02392344
2.204000,-0.02551834
2.208000,-0.01594896
2.212000,0.00159490
2.216000,0.01754386
2.220000,0.01275917
2.224000,-0.01116427
2.228000,-0.02551834
2.232000,-0.01754386
2.236000,-0.00797448
2.240000,0.00000000
2.244000,-0.00478469
2.248000,-0.02392344
2.252000,-0.03349282
2.256000,-0.03349282
2.260000,-0.01594896
2.264000,-0.00478469
2.268000,-0.00318979
2.272000,-0.02073365
2.276000,-0.03508772
2.280000,-0.03827751
2.284000,-0.02551834
2.288000,-0.01435407
2.292000,-0.00637959
2.296000,-0.00159490
2.300000,0.00000000
2.304000,0.00797448
2.308000,0.05103668
2.312000,0.11323764
2.316000,0.20893142
2.320000,0.35406699
2.324000,0.51036683
2.328000,0.66347687
2.332000,0.74322169
2.336000,0.74641148
2.340000,0.67783094
2.344000,0.51993620
2.348000,0.31578947
2.352000,0.11164274
2.356000,-0.04784689
2.360000,-0.08931419
2.364000,-0.08771930
2.368000,-0.05103668
2.372000,-0.02232855
2.376000,-0.02232855
2.380000,-0.04784689
2.384000,-0.07974482
2.388000,-0.11961722
2.392000,-0.13078150
2.396000,-0.11164274
2.400000,-0.09569378
2.404000,-0.07974482
2.408000,-0.07496013
2.412000,-0.08133971
2.416000,-0.08293461
2.420000,-0.07814992
2.424000,-0.07655502
2.428000,-0.07974482
2.432000,-0.08452951
2.436000,-0.08612440
2.440000,-0.09569378
2.444000,-0.10526316
2.448000,-0.10685805
2.452000,-0.09409888
2.456000,-0.07336523
2.460000,-0.07177033
2.464000,-0.09569378
2.468000,-0.11961722
2.472000,-0.11961722
2.476000,-0.10047847
2.480000,-0.08771930
2.484000,-0.08771930
2.488000,-0.10047847
2.492000,-0.10685805
2.496000,-0.10845295
2.500000,-0.10366826
2.504000,-0.11004785
2.508000,-0.11961722
2.512000,-0.13237640
2.516000,-0.12599681
2.520000,-0.12759171
2.524000,-0.12759171
2.528000,-0.14513557
2.532000,-0.14354067
2.536000,-0.14035088
2.540000,-0.13556619
2.544000,-0.12280702
2.548000,-0.13078150
2.552000,-0.13078150
2.556000,-0.14673046
2.560000,-0.13716108
2.564000,-0.10526316
2.568000,-0.07655502
2.572000,-0.05582137
2.576000,-0.05582137
2.580000,-0.07655502
2.584000,-0.07017544
2.588000,-0.05901116
2.592000,-0.03349282
2.596000,-0.01594896
2.600000,-0.01116427
2.604000,-0.02551834
2.608000,-0.02870813
2.612000,-0.03827751
2.616000,-0.03668262
2.620000,-0.03349282
2.624000,-0.02392344
2.628000,-0.01754386
2.632000,-0.02073365
2.636000,-0.02870813
2.640000,-0.02711324
2.644000,-0.03189793
2.648000,-0.02232855
2.652000,-0.01275917
2.656000,-0.01594896
2.660000,-0.01116427
2.664000,-0.01913876
2.668000,-0.02392344
2.672000,-0.02392344
2.676000,-0.01754386
2.680000,-0.01435407
2.684000,0.00159490
2.688000,0.01275917
2.692000,0.03030303
2.696000,0.04784689
2.700000,0.03827751
2.704000,0.02073365
2.708000,0.01913876
2.712000,0.00956938
2.716000,0.01594896
2.720000,0.00637959
2.724000,0.00000000
2.728000,0.00797448
2.732000,0.00637959
2.736000,0.01116427
2.740000,0.01594896
2.744000,0.01435407
2.748000,0.00956938
2.752000,0.00637959
2.756000,-0.01116427
2.760000,-0.03508772
2.764000,-0.03349282
2.768000,-0.02551834
2.772000,-0.00318979
2.776000,0.01435407
2.780000,0.00478469
2.784000,-0.01116427
2.788000,-0.03827751
2.792000,-0.02551834
2.796000,-0.00637959
2.800000,0.02073365
2.804000,0.02551834
2.808000,0.01913876
2.812000,0.00159490
2.816000,-0.00478469
2.820000,-0.01116427
2.824000,-0.00637959
2.828000,-0.00478469
2.832000,-0.00956938
2.836000,-0.00637959
2.840000,-0.00956938
2.844000,-0.02232855
2.848000,-0.03189793
2.852000,-0.04465710
2.856000,-0.03668262
2.860000,-0.03189793
2.864000,-0.03030303
2.868000,-0.03349282
2.872000,-0.03189793
2.876000,-0.02073365
2.880000,-0.01116427
2.884000,0.00159490
2.888000,0.03030303
2.892000,0.10526316
2.896000,0.21212121
2.900000,0.35566188
2.904000,0.52791069
2.908000,0.68421053
2.912000,0.75917065
2.916000,0.74960128
2.920000,0.66826156
2.924000,0.51834131
2.928000,0.32535885
2.932000,0.12121212
2.936000,-0.02232855
2.940000,-0.08133971
2.944000,-0.08452951
2.948000,-0.07177033
2.952000,-0.07974482
2.956000,-0.07974482
2.960000,-0.08133971
2.964000,-0.07496013
2.968000,-0.07974482
2.972000,-0.09090909
2.976000,-0.10685805
2.980000,-0.11483254
2.984000,-0.10685805
2.988000,-0.09250399
2.992000,-0.07336523
2.996000,-0.07336523
3.000000,-0.08293461
3.004000,-0.09569378
3.008000,-0.09250399
3.012000,-0.09250399
3.016000,-0.08293461
3.020000,-0.09569378
3.024000,-0.10207337
3.028000,-0.10207337
3.032000,-0.09728868
3.036000,-0.09090909
3.040000,-0.09090909
3.044000,-0.09728868
3.048000,-0.08293461
3.052000,-0.06858054
3.056000,-0.07655502
3.060000,-0.09569378
3.064000,-0.10207337
3.068000,-0.11483254
3.072000,-0.10845295
3.076000,-0.11323764
3.080000,-0.10685805
3.084000,-0.10526316
3.088000,-0.12121212
3.092000,-0.12599681
3.096000,-0.13556619
3.100000,-0.14513557
3.104000,-0.15789474
3.108000,-0.14832536
3.112000,-0.14194577
3.116000,-0.14035088
3.120000,-0.13397129
3.124000,-0.12759171
3.128000,-0.12440191
3.132000,-0.11961722
3.136000,-0.10845295
3.140000,-0.10207337
3.144000,-0.10047847
3.148000,-0.09888357
3.152000,-0.08612440
3.156000,-0.06060606
3.160000,-0.03827751
3.164000,-0.03030303
3.168000,-0.01594896
3.172000,-0.03030303
3.176000,-0.03827751
3.180000,-0.05103668
3.184000,-0.04465710
3.188000,-0.03987241
3.192000,-0.03349282
3.196000,-0.00956938
3.200000,0.00159490
3.204000,-0.01275917
3.208000,-0.03349282
3.212000,-0.06539075
3.216000,-0.06379585
3.220000,-0.04944179
3.224000,-0.01435407
3.228000,-0.01116427
3.232000,-0.01275917
3.236000,-0.02392344
3.240000,-0.03189793
3.244000,-0.02551834
3.248000,-0.01594896
3.252000,-0.00956938
3.256000,-0.00637959
3.260000,0.00000000
3.264000,0.00000000
3.268000,0.00637959
3.272000,0.01594896
3.276000,0.02551834
3.280000,0.01594896
3.284000,0.00637959
3.288000,-0.00797448
3.292000,-0.00478469
3.296000,-0.01594896
3.300000,-0.02392344
3.304000,-0.03349282
3.308000,-0.02551834
3.312000,-0.02870813
3.316000,-0.04465710
3.320000,-0.05582137
3.324000,-0.05741627
3.328000,-0.02870813
3.332000,-0.00797448
3.336000,-0.02232855
3.340000,-0.04944179
3.344000,-0.06539075
3.348000,-0.06060606
3.352000,-0.04625199
3.356000,-0.02711324
3.360000,-0.02392344
3.364000,-0.03349282
3.368000,-0.05103668
3.372000,-0.05422648
3.376000,-0.04465710
3.380000,-0.05422648
3.384000,-0.06379585
3.388000,-0.07655502
3.392000,-0.08771930
3.396000,-0.08293461
3.400000,-0.08293461
3.404000,-0.08931419
3.408000,-0.08771930
3.412000,-0.08931419
3.416000,-0.08612440
3.420000,-0.08612440
3.424000,-0.08771930
3.428000,-0.08452951
3.432000,-0.08133971
3.436000,-0.06858054
3.440000,-0.06539075
3.444000,-0.06379585
3.448000,-0.04465710
3.452000,0.01275917
3.456000,0.09728868
3.460000,0.21690590
3.464000,0.39872408
3.468000,0.56618820
3.472000,0.66507177
3.476000,0.68421053
3.480000,0.61881978
3.484000,0.48644338
3.488000,0.29186603
3.492000,0.08771930
3.496000,-0.08293461
3.500000,-0.14513557
3.504000,-0.13875598
3.508000,-0.10366826
3.512000,-0.10047847
3.516000,-0.11483254
3.520000,-0.14832536
3.524000,-0.18181818
3.528000,-0.17065391
3.532000,-0.16108453
3.536000,-0.15311005
3.540000,-0.15151515
3.544000,-0.16267943
3.548000,-0.15789474
3.552000,-0.15311005
3.556000,-0.13716108
3.560000,-0.13237640
3.564000,-0.13716108
3.568000,-0.15948963
3.572000,-0.16746411
3.576000,-0.16586922
3.580000,-0.15151515
3.584000,-0.14194577
3.588000,-0.14673046
3.592000,-0.15311005
3.596000,-0.16586922
3.600000,-0.16905901
3.604000,-0.15470494
3.608000,-0.14513557
3.612000,-0.14832536
3.616000,-0.15948963
3.620000,-0.16746411
3.624000,-0.17543860
3.628000,-0.16746411
3.632000,-0.16108453
3.636000,-0.15470494
3.640000,-0.16267943
3.644000,-0.17543860
3.648000,-0.18181818
3.652000,-0.19138756
3.656000,-0.18819777
3.660000,-0.18819777
3.664000,-0.18979266
3.668000,-0.18341308
3.672000,-0.18341308
3.676000,-0.18022329
3.680000,-0.18819777
3.684000,-0.20574163
3.688000,-0.20893142
3.692000,-0.19617225
3.696000,-0.17543860
3.700000,-0.15948963
3.704000,-0.16108453
3.708000,-0.15470494
3.712000,-0.14035088
3.716000,-0.12280702
3.720000,-0.11642743
3.724000,-0.10366826
3.728000,-0.09569378
3.732000,-0.09250399
3.736000,-0.09409888
3.740000,-0.08771930
3.744000,-0.08293461
3.748000,-0.08293461
3.752000,-0.08612440
3.756000,-0.10047847
3.760000,-0.10845295
3.764000,-0.10526316
3.768000,-0.10526316
3.772000,-0.08771930
3.776000,-0.06698565
3.780000,-0.05263158
3.784000,-0.04944179
3.788000,-0.07496013
3.792000,-0.09569378
3.796000,-0.08771930
3.800000,-0.07974482
3.804000,-0.06698565
3.808000,-0.04784689
3.812000,-0.03987241
3.816000,-0.02870813
3.820000,-0.02232855
3.824000,-0.04146730
3.828000,-0.06379585
3.832000,-0.06539075
3.836000,-0.04146730
3.840000,-0.02073365
3.844000,-0.02073365
3.848000,-0.02551834
3.852000,-0.02392344
3.856000,-0.02073365
3.860000,-0.02073365
3.864000,-0.03030303
3.868000,-0.05103668
3.872000,-0.06858054
3.876000,-0.07017544
3.880000,-0.07496013
3.884000,-0.07336523
3.888000,-0.07814992
3.892000,-0.09569378
3.896000,-0.09569378
3.900000,-0.08931419
3.904000,-0.07336523
3.908000,-0.07177033
3.912000,-0.08293461
3.916000,-0.08931419
3.920000,-0.09569378
3.924000,-0.08931419
3.928000,-0.07336523
3.932000,-0.06539075
3.936000,-0.06858054
3.940000,-0.07017544
3.944000,-0.07496013
3.948000,-0.07017544
3.952000,-0.06060606
3.956000,-0.05103668
3.960000,-0.05741627
3.964000,-0.06539075
3.968000,-0.07017544
3.972000,-0.07496013
3.976000,-0.06220096
3.980000,-0.04465710
3.984000,-0.05582137
3.988000,-0.07655502
3.992000,-0.08931419
3.996000,-0.08293461
4.000000,-0.07017544
4.004000,-0.05741627
4.008000,-0.05263158
4.012000,-0.07336523
4.016000,-0.08931419
4.020000,-0.08931419
4.024000,-0.06060606
4.028000,-0.00956938
4.032000,0.04944179
4.036000,0.14992026
4.040000,0.29505582
4.044000,0.47527911
4.048000,0.62200957
4.052000,0.70972887
4.056000,0.71132376
4.060000,0.63317384
4.064000,0.49122807
4.068000,0.28708134
4.072000,0.08293461
4.076000,-0.07336523
4.080000,-0.12599681
4.084000,-0.11961722
4.088000,-0.10207337
4.092000,-0.09409888
4.096000,-0.09569378
4.100000,-0.09728868
4.104000,-0.10047847
4.108000,-0.10207337
4.112000,-0.12440191
4.116000,-0.14992026
4.120000,-0.14673046
4.124000,-0.14673046
4.128000,-0.13556619
4.132000,-0.12280702
4.136000,-0.11164274
4.140000,-0.11961722
4.144000,-0.13237640
4.148000,-0.14673046
4.152000,-0.14513557
4.156000,-0.13875598
4.160000,-0.13397129
4.164000,-0.14035088
4.168000,-0.15151515
4.172000,-0.15151515
4.176000,-0.15151515
4.180000,-0.15311005
4.184000,-0.14354067
4.188000,-0.13397129
4.192000,-0.13716108
4.196000,-0.14354067
4.200000,-0.14832536
4.204000,-0.14354067
4.208000,-0.14035088
4.212000,-0.12599681
4.216000,-0.12280702
4.220000,-0.13078150
4.224000,-0.14832536
4.228000,-0.15948963
4.232000,-0.15789474
4.236000,-0.16427432
4.240000,-0.15948963
4.244000,-0.17224880
4.248000,-0.17703349
4.252000,-0.16905901
4.256000,-0.18022329
4.260000,-0.18660287
4.264000,-0.18819777
4.268000,-0.18181818
4.272000,-0.17384370
4.276000,-0.14832536
4.280000,-0.12759171
4.284000,-0.11642743
4.288000,-0.11802233
4.292000,-0.12121212
4.296000,-0.12121212
4.300000,-0.10526316
4.304000,-0.07814992
4.308000,-0.05582137
4.312000,-0.04944179
4.316000,-0.06220096
4.320000,-0.08293461
4.324000,-0.08612440
4.328000,-0.07177033
4.332000,-0.04465710
4.336000,-0.02711324
4.340000,-0.01913876
4.344000,-0.04146730
4.348000,-0.07655502
4.352000,-0.09090909
4.356000,-0.08612440
4.360000,-0.05582137
4.364000,-0.04465710
4.368000,-0.05422648
4.372000,-0.06858054
4.376000,-0.06379585
4.380000,-0.05263158
4.384000,-0.04625199
4.388000,-0.03508772
4.392000,-0.03508772
4.396000,-0.02073365
4.400000,-0.02551834
4.404000,-0.01754386
4.408000,-0.00637959
4.412000,-0.01594896
4.416000,-0.01594896
4.420000,-0.02551834
4.424000,-0.01913876
4.428000,-0.00159490
4.432000,0.00637959
4.436000,0.01754386
4.440000,0.02870813
4.444000,0.02073365
4.448000,-0.02073365
4.452000,-0.05741627
4.456000,-0.07496013
4.460000,-0.05741627
4.464000,-0.01435407
4.468000,0.01435407
4.472000,0.00956938
4.476000,-0.00956938
4.480000,-0.03189793
4.484000,-0.03668262
4.488000,-0.03827751
4.492000,-0.03349282
4.496000,-0.03189793
4.500000,-0.02551834
4.504000,-0.02232855
4.508000,-0.01116427
4.512000,-0.00956938
4.516000,-0.00956938
4.520000,-0.01116427
4.524000,-0.01754386
4.528000,-0.02551834
4.532000,-0.03030303
4.536000,-0.03349282
4.540000,-0.02870813
4.544000,-0.03189793
4.548000,-0.03508772
4.552000,-0.02870813
4.556000,-0.03349282
4.560000,-0.03189793
4.564000,-0.02551834
4.568000,-0.01913876
4.572000,-0.01754386
4.576000,-0.01275917
4.580000,-0.00478469
4.584000,0.00478469
4.588000,0.00637959
4.592000,0.02232855
4.596000,0.03508772
4.600000,0.04625199
4.604000,0.07814992
4.608000,0.13875598
4.612000,0.23763955
4.616000,0.37161085
4.620000,0.51196172
4.624000,0.65709729
4.628000,0.74960128
4.632000,0.77830941
4.636000,0.73843700
4.640000,0.65071770
4.644000,0.50717703
4.648000,0.32535885
4.652000,0.14673046
4.656000,0.03508772
4.660000,0.01594896
4.664000,0.04784689
4.668000,0.07336523
4.672000,0.07177033
4.676000,0.06858054
4.680000,0.07017544
4.684000,0.07814992
4.688000,0.08452951
4.692000,0.08133971
4.696000,0.07017544
4.700000,0.06858054
4.704000,0.07655502
4.708000,0.10366826
4.712000,0.10207337
4.716000,0.11004785
4.720000,0.11164274
4.724000,0.11642743
4.728000,0.12280702
4.732000,0.12759171
4.736000,0.12599681
4.740000,0.12440191
4.744000,0.11961722
4.748000,0.11961722
4.752000,0.13078150
4.756000,0.14992026
4.760000,0.17065391
4.764000,0.15948963
4.768000,0.12918660
4.772000,0.11164274
4.776000,0.11802233
4.780000,0.12440191
4.784000,0.10685805
4.788000,0.05422648
4.792000,0.02073365
4.796000,0.01594896
4.800000,0.03189793
4.804000,0.06220096
4.808000,0.07814992
4.812000,0.08931419
4.816000,0.08931419
4.820000,0.09569378
4.824000,0.09728868
4.828000,0.09409888
4.832000,0.09250399
4.836000,0.11164274
4.840000,0.12440191
4.844000,0.13078150
4.848000,0.13716108
4.852000,0.14354067
4.856000,0.15311005
4.860000,0.16746411
4.864000,0.17384370
4.868000,0.17065391
4.872000,0.17703349
4.876000,0.18979266
4.880000,0.20893142
4.884000,0.21052632
4.888000,0.21371611
4.892000,0.22328549
4.896000,0.24082935
4.900000,0.24880383
4.904000,0.20733652
4.908000,0.14992026
4.912000,0.11802233
4.916000,0.14035088
4.920000,0.17703349
4.924000,0.20893142
4.928000,0.23604466
4.932000,0.25199362
4.936000,0.24561404
4.940000,0.23444976
4.944000,0.20574163
4.948000,0.17703349
4.952000,0.16905901
4.956000,0.17703349
4.960000,0.20095694
4.964000,0.22169059
4.968000,0.22807018
4.972000,0.22169059
4.976000,0.21690590
4.980000,0.21371611
4.984000,0.21690590
4.988000,0.22169059
4.992000,0.23285486
4.996000,0.23604466
5.000000,0.23285486
5.004000,0.22966507
5.008000,0.24561404
5.012000,0.24242424
5.016000,0.24880383
5.020000,0.23763955
5.024000,0.23285486
5.028000,0.22328549
5.032000,0.22328549
5.036000,0.22966507
5.040000,0.24082935
5.044000,0.25518341
5.048000,0.25518341
5.052000,0.23285486
5.056000,0.18979266
5.060000,0.14354067
5.064000,0.12440191
5.068000,0.13875598
5.072000,0.15789474
5.076000,0.17703349
5.080000,0.16905901
5.084000,0.15948963
5.088000,0.16108453
5.092000,0.17065391
5.096000,0.18022329
5.100000,0.19298246
5.104000,0.19936204
5.108000,0.20414673
5.112000,0.19138756
5.116000,0.18660287
5.120000,0.17384370
5.124000,0.17703349
5.128000,0.17543860
5.132000,0.18341308
5.136000,0.18660287
5.140000,0.18660287
5.144000,0.19298246
5.148000,0.20255183
5.152000,0.20255183
5.156000,0.20095694
5.160000,0.19298246
5.164000,0.20255183
5.168000,0.19776715
5.172000,0.20255183
5.176000,0.21371611
5.180000,0.23923445
5.184000,0.25677831
5.188000,0.27272727
5.192000,0.29824561
5.196000,0.34290271
5.200000,0.41626794
5.204000,0.50558214
5.208000,0.64114833
5.212000,0.76395534
5.216000,0.81818182
5.220000,0.80063796
5.224000,0.70813397
5.228000,0.55661882
5.232000,0.37001595
5.236000,0.21212121
5.240000,0.12121212
5.244000,0.10526316
5.248000,0.11483254
5.252000,0.13237640
5.256000,0.13078150
5.260000,0.11483254
5.264000,0.08931419
5.268000,0.08293461
5.272000,0.07496013
5.276000,0.07814992
5.280000,0.07017544
5.284000,0.07814992
5.288000,0.08931419
5.292000,0.09409888
5.296000,0.09728868
5.300000,0.09409888
5.304000,0.09728868
5.308000,0.09090909
5.312000,0.07814992
5.316000,0.06858054
5.320000,0.05103668
5.324000,0.05263158
5.328000,0.03827751
5.332000,0.04306220
5.336000,0.04784689
5.340000,0.05263158
5.344000,0.05263158
5.348000,0.06060606
5.352000,0.07655502
5.356000,0.08133971
5.360000,0.05582137
5.364000,0.02711324
5.368000,0.00637959
5.372000,0.02392344
5.376000,0.04784689
5.380000,0.08293461
5.384000,0.10685805
5.388000,0.10047847
5.392000,0.05741627
5.396000,-0.00159490
5.400000,-0.04306220
5.404000,-0.05901116
5.408000,-0.05582137
5.412000,-0.06060606
5.416000,-0.06539075
5.420000,-0.07177033
5.424000,-0.08133971
5.428000,-0.08931419
5.432000,-0.07814992
5.436000,-0.06379585
5.440000,-0.05422648
5.444000,-0.04306220
5.448000,-0.04465710
5.452000,-0.02551834
5.456000,-0.00797448
5.460000,0.02870813
5.464000,0.06220096
5.468000,0.08771930
5.472000,0.11802233
5.476000,0.12280702
5.480000,0.11642743
5.484000,0.11642743
5.488000,0.11483254
5.492000,0.12280702
5.496000,0.12121212
5.500000,0.11642743
5.504000,0.10047847
5.508000,0.07496013
5.512000,0.05422648
5.516000,0.03189793
5.520000,0.02392344
5.524000,0.01913876
5.528000,0.02073365
5.532000,0.02870813
5.536000,0.04944179
5.540000,0.07017544
5.544000,0.09569378
5.548000,0.12280702
5.552000,0.16427432
5.556000,0.21850080
5.560000,0.23923445
5.564000,0.25518341
5.568000,0.28708134
5.572000,0.31897927
5.576000,0.35725678
5.580000,0.38915470
5.584000,0.41626794
5.588000,0.43062201
5.592000,0.43062201
5.596000,0.40510367
5.600000,0.38596491
5.604000,0.37161085
5.608000,0.34928230
5.612000,0.30781499
5.616000,0.26794258
5.620000,0.22966507
5.624000,0.20733652
5.628000,0.20255183
5.632000,0.18660287
5.636000,0.16267943
5.640000,0.11961722
5.644000,0.07814992
5.648000,0.07017544
5.652000,0.07496013
5.656000,0.10207337
5.660000,0.12918660
5.664000,0.12918660
5.668000,0.11961722
5.672000,0.09569378
5.676000,0.03030303
5.680000,-0.02711324
5.684000,-0.06698565
5.688000,-0.05422648
5.692000,-0.02392344
5.696000,0.00000000
5.700000,0.00478469
5.704000,-0.00318979
5.708000,-0.00637959
5.712000,-0.00956938
5.716000,0.00000000
5.720000,0.01594896
5.724000,0.03030303
5.728000,0.03668262
5.732000,0.06539075
5.736000,0.08771930
5.740000,0.11004785
5.744000,0.10845295
5.748000,0.11642743
5.752000,0.13716108
5.756000,0.17224880
5.760000,0.22009569
5.764000,0.26475279
5.768000,0.29027113
5.772000,0.30303030
5.776000,0.37480064
5.780000,0.49760766
5.784000,0.62998405
5.788000,0.74641148
5.792000,0.78628389
5.796000,0.73684211
5.800000,0.62519936
5.804000,0.48963317
5.808000,0.35725678
5.812000,0.21371611
5.816000,0.06220096
5.820000,-0.04146730
5.824000,-0.05422648
5.828000,0.00478469
5.832000,0.07814992
5.836000,0.09409888
5.840000,0.06698565
5.844000,0.02073365
5.848000,0.00000000
5.852000,-0.00318979
5.856000,0.01435407
5.860000,0.04784689
5.864000,0.07017544
5.868000,0.09728868
5.872000,0.12440191
5.876000,0.13875598
5.880000,0.13556619
5.884000,0.14035088
5.888000,0.14992026
5.892000,0.17065391
5.896000,0.19457735
5.900000,0.21052632
5.904000,0.21850080
5.908000,0.21371611
5.912000,0.18819777
5.916000,0.17224880
5.920000,0.15789474
5.924000,0.15789474
5.928000,0.15948963
5.932000,0.17065391
5.936000,0.12440191
5.940000,0.06220096
5.944000,0.01116427
5.948000,-0.01275917
5.952000,-0.01116427
5.956000,-0.02073365
5.960000,-0.00956938
5.964000,-0.01116427
5.968000,-0.03508772
5.972000,-0.08293461
5.976000,-0.11642743
5.980000,-0.09409888
5.984000,-0.03508772
5.988000,0.03668262
5.992000,0.08771930
5.996000,0.04306220
6.000000,-0.03668262
6.004000,-0.09728868
6.008000,-0.08133971
6.012000,-0.02392344
6.016000,0.02870813
6.020000,0.03987241
6.024000,0.03189793
6.028000,0.02711324
6.032000,0.01116427
6.036000,0.00159490
6.040000,-0.01275917
6.044000,-0.03030303
6.048000,-0.05103668
6.052000,-0.07336523
6.056000,-0.05422648
6.060000,-0.03827751
6.064000,-0.05741627
6.068000,-0.10366826
6.072000,-0.13875598
6.076000,-0.13556619
6.080000,-0.14354067
6.084000,-0.13237640
6.088000,-0.13716108
6.092000,-0.14194577
6.096000,-0.16586922
6.100000,-0.16108453
6.104000,-0.16267943
6.108000,-0.15789474
6.112000,-0.16267943
6.116000,-0.16267943
6.120000,-0.15948963
6.124000,-0.18660287
6.128000,-0.22647528
6.132000,-0.19776715
6.136000,-0.13556619
6.140000,-0.08931419
6.144000,-0.07655502
6.148000,-0.08133971
6.152000,-0.04784689
6.156000,-0.03030303
6.160000,-0.01754386
6.164000,-0.02551834
6.168000,-0.07177033
6.172000,-0.14354067
6.176000,-0.22328549
6.180000,-0.25996810
6.184000,-0.26634769
6.188000,-0.22966507
6.192000,-0.18181818
6.196000,-0.15311005
6.200000,-0.14992026
6.204000,-0.17224880
6.208000,-0.21052632
6.212000,-0.22647528
6.216000,-0.22807018
6.220000,-0.20733652
6.224000,-0.20414673
6.228000,-0.18181818
6.232000,-0.17384370
6.236000,-0.17384370
6.240000,-0.16427432
6.244000,-0.15948963
6.248000,-0.17224880
6.252000,-0.18819777
6.256000,-0.20095694
6.260000,-0.19617225
6.264000,-0.18979266
6.268000,-0.17543860
6.272000,-0.15470494
6.276000,-0.13875598
6.280000,-0.16427432
6.284000,-0.21371611
6.288000,-0.26953748
6.292000,-0.26953748
6.296000,-0.22647528
6.300000,-0.14992026
6.304000,-0.08612440
6.308000,-0.09728868
6.312000,-0.15151515
6.316000,-0.18181818
6.320000,-0.14035088
6.324000,-0.06220096
6.328000,0.05263158
6.332000,0.20733652
6.336000,0.36842105
6.340000,0.47368421
6.344000,0.47368421
6.348000,0.36363636
6.352000,0.15948963
6.356000,-0.04465710
6.360000,-0.24880383
6.364000,-0.30303030
6.368000,-0.28867624
6.372000,-0.24880383
6.376000,-0.22009569
6.380000,-0.19617225
6.384000,-0.19457735
6.388000,-0.19138756
6.392000,-0.18341308
6.396000,-0.17543860
6.400000,-0.16427432
6.404000,-0.16746411
6.408000,-0.18022329
6.412000,-0.19457735
6.416000,-0.20893142
6.420000,-0.21690590
6.424000,-0.21371611
6.428000,-0.22009569
6.432000,-0.23444976
6.436000,-0.24561404
6.440000,-0.25518341
6.444000,-0.25837321
6.448000,-0.25358852
6.452000,-0.23604466
6.456000,-0.23604466
6.460000,-0.24561404
6.464000,-0.26794258
6.468000,-0.28867624
6.472000,-0.28548644
6.476000,-0.27272727
6.480000,-0.27113238
6.484000,-0.26156300
6.488000,-0.26634769
6.492000,-0.28389155
6.496000,-0.29027113
6.500000,-0.25039872
6.504000,-0.19298246
6.508000,-0.13716108
6.512000,-0.10047847
6.516000,-0.10047847
6.520000,-0.11483254
6.524000,-0.14992026
6.528000,-0.16746411
6.532000,-0.15789474
6.536000,-0.14673046
6.540000,-0.13078150
6.544000,-0.12440191
6.548000,-0.13875598
6.552000,-0.15151515
6.556000,-0.17543860
6.560000,-0.20255183
6.564000,-0.21371611
6.568000,-0.19776715
6.572000,-0.18500797
6.576000,-0.19617225
6.580000,-0.24880383
6.584000,-0.27751196
6.588000,-0.28548644
6.592000,-0.26634769
6.596000,-0.24880383
6.600000,-0.25358852
6.604000,-0.24242424
6.608000,-0.23125997
6.612000,-0.23125997
6.616000,-0.20414673
6.620000,-0.18979266
6.624000,-0.16427432
6.628000,-0.13397129
6.632000,-0.09888357
6.636000,-0.09409888
6.640000,-0.11642743
6.644000,-0.15789474
6.648000,-0.19617225
6.652000,-0.20893142
6.656000,-0.17862839
6.660000,-0.13237640
6.664000,-0.08452951
6.668000,-0.05422648
6.672000,-0.04306220
6.676000,-0.01116427
6.680000,0.00318979
6.684000,0.00637959
6.688000,-0.04784689
6.692000,-0.11164274
6.696000,-0.14673046
6.700000,-0.12440191
6.704000,-0.07017544
6.708000,-0.00797448
6.712000,0.00159490
6.716000,-0.03508772
6.720000,-0.08133971
6.724000,-0.11004785
6.728000,-0.10845295
6.732000,-0.08293461
6.736000,-0.04306220
6.740000,-0.02711324
6.744000,-0.01754386
6.748000,-0.04625199
6.752000,-0.09888357
6.756000,-0.17224880
6.760000,-0.21212121
6.764000,-0.22647528
6.768000,-0.20095694
6.772000,-0.16586922
6.776000,-0.14832536
6.780000,-0.13397129
6.784000,-0.12440191
6.788000,-0.12759171
6.792000,-0.13875598
6.796000,-0.15948963
6.800000,-0.17065391
6.804000,-0.17703349
6.808000,-0.17384370
6.812000,-0.17224880
6.816000,-0.14035088
6.820000,-0.11164274
6.824000,-0.09090909
6.828000,-0.12440191
6.832000,-0.15629984
6.836000,-0.19138756
6.840000,-0.21690590
6.844000,-0.21531100
6.848000,-0.21212121
6.852000,-0.21052632
6.856000,-0.19776715
6.860000,-0.20414673
6.864000,-0.22807018
6.868000,-0.24561404
6.872000,-0.25199362
6.876000,-0.22009569
6.880000,-0.19138756
6.884000,-0.18979266
6.888000,-0.21212121
6.892000,-0.25518341
6.896000,-0.25837321
6.900000,-0.22328549
6.904000,-0.12759171
6.908000,0.00956938
6.912000,0.15629984
6.916000,0.32535885
6.920000,0.45933014
6.924000,0.52472089
6.928000,0.49282297
6.932000,0.35406699
6.936000,0.14992026
6.940000,-0.05422648
6.944000,-0.22807018
6.948000,-0.29984051
6.952000,-0.28548644
6.956000,-0.21690590
6.960000,-0.15629984
6.964000,-0.14513557
6.968000,-0.18181818
6.972000,-0.24242424
6.976000,-0.25518341
6.980000,-0.24720893
6.984000,-0.25039872
6.988000,-0.27910686
6.992000,-0.27910686
6.996000,-0.26315789
7.000000,-0.23285486
7.004000,-0.20255183
7.008000,-0.18341308
7.012000,-0.19457735
7.016000,-0.24242424
7.020000,-0.29346093
7.024000,-0.29984051
7.028000,-0.25358852
7.032000,-0.22647528
7.036000,-0.25837321
7.040000,-0.29505582
7.044000,-0.31897927
7.048000,-0.31419458
7.052000,-0.31259968
7.056000,-0.29824561
7.060000,-0.29027113
7.064000,-0.31100478
7.068000,-0.33173844
7.072000,-0.35087719
7.076000,-0.34768740
7.080000,-0.34768740
7.084000,-0.35087719
7.088000,-0.34928230
7.092000,-0.34290271
7.096000,-0.34130781
7.100000,-0.33652313
7.104000,-0.33173844
7.108000,-0.32854864
7.112000,-0.33492823
7.116000,-0.33652313
7.120000,-0.33811802
7.124000,-0.33333333
7.128000,-0.32216906
7.132000,-0.28867624
7.136000,-0.26634769
7.140000,-0.24561404
7.144000,-0.26156300
7.148000,-0.28867624
7.152000,-0.30622010
7.156000,-0.30462520
7.160000,-0.29027113
7.164000,-0.25518341
7.168000,-0.19936204
7.172000,-0.18022329
7.176000,-0.20414673
7.180000,-0.21531100
7.184000,-0.19138756
7.188000,-0.16427432
7.192000,-0.18660287
7.196000,-0.25837321
7.200000,-0.28867624
7.204000,-0.26156300
7.208000,-0.18819777
7.212000,-0.13237640
7.216000,-0.15151515
7.220000,-0.21212121
7.224000,-0.26315789
7.228000,-0.25677831
7.232000,-0.18979266
7.236000,-0.10845295
7.240000,-0.05901116
7.244000,-0.07496013
7.248000,-0.14035088
7.252000,-0.20893142
7.256000,-0.22169059
7.260000,-0.17543860
7.264000,-0.09250399
7.268000,-0.03827751
7.272000,-0.06220096
7.276000,-0.10526316
7.280000,-0.15470494
7.284000,-0.18500797
7.288000,-0.18979266
7.292000,-0.17065391
7.296000,-0.13078150
7.300000,-0.04146730
7.304000,0.03668262
7.308000,0.08452951
7.312000,0.01594896
7.316000,-0.12280702
7.320000,-0.24561404
7.324000,-0.26475279
7.328000,-0.19457735
7.332000,-0.14354067
7.336000,-0.11642743
7.340000,-0.11004785
7.344000,-0.07017544
7.348000,-0.02870813
7.352000,-0.03827751
7.356000,-0.12759171
7.360000,-0.20733652
7.364000,-0.21690590
7.368000,-0.16746411
7.372000,-0.10366826
7.376000,-0.06220096
7.380000,-0.06379585
7.384000,-0.11483254
7.388000,-0.15789474
7.392000,-0.16108453
7.396000,-0.12599681
7.400000,-0.07177033
7.404000,-0.03668262
7.408000,0.00637959
7.412000,0.00000000
7.416000,-0.07177033
7.420000,-0.17384370
7.424000,-0.22328549
7.428000,-0.16746411
7.432000,-0.05582137
7.436000,-0.00478469
7.440000,-0.03349282
7.444000,-0.09409888
7.448000,-0.13397129
7.452000,-0.11642743
7.456000,-0.08293461
7.460000,-0.05901116
7.464000,-0.07496013
7.468000,-0.08133971
7.472000,-0.06060606
7.476000,0.02392344
7.480000,0.13875598
7.484000,0.27113238
7.488000,0.40988836
7.492000,0.55183413
7.496000,0.65550239
7.500000,0.68421053
7.504000,0.61881978
7.508000,0.47527911
7.512000,0.28389155
7.516000,0.10845295
7.520000,-0.05741627
7.524000,-0.17224880
7.528000,-0.20414673
7.532000,-0.15470494
7.536000,-0.05901116
7.540000,-0.01913876
7.544000,-0.06698565
7.548000,-0.15470494
7.552000,-0.21052632
7.556000,-0.22966507
7.560000,-0.20574163
7.564000,-0.15948963
7.568000,-0.13397129
7.572000,-0.14673046
7.576000,-0.17862839
7.580000,-0.19936204
7.584000,-0.16905901
7.588000,-0.15629984
7.592000,-0.18660287
7.596000,-0.20414673
7.600000,-0.18500797
7.604000,-0.14992026
7.608000,-0.12280702
7.612000,-0.12440191
7.616000,-0.13716108
7.620000,-0.15311005
7.624000,-0.15470494
7.628000,-0.12440191
7.632000,-0.07336523
7.636000,-0.03987241
7.640000,-0.05103668
7.644000,-0.08133971
7.648000,-0.10526316
7.652000,-0.11642743
7.656000,-0.14673046
7.660000,-0.16905901
7.664000,-0.16586922
7.668000,-0.14673046
7.672000,-0.13875598
7.676000,-0.12759171
7.680000,-0.10526316
7.684000,-0.09888357
7.688000,-0.12280702
7.692000,-0.15311005
7.696000,-0.16905901
7.700000,-0.16267943
7.704000,-0.15789474
7.708000,-0.17065391
7.712000,-0.16905901
7.716000,-0.15311005
7.720000,-0.13237640
7.724000,-0.11323764
7.728000,-0.10845295
7.732000,-0.09250399
7.736000,-0.05901116
7.740000,-0.03827751
7.744000,-0.04784689
7.748000,-0.08931419
7.752000,-0.08771930
7.756000,-0.08452951
7.760000,-0.07814992
7.764000,-0.06060606
7.768000,-0.04944179
7.772000,-0.01913876
7.776000,-0.01275917
7.780000,-0.03987241
7.784000,-0.07814992
7.788000,-0.10526316
7.792000,-0.10366826
7.796000,-0.08452951
7.800000,-0.05582137
7.804000,-0.03030303
7.808000,0.00000000
7.812000,0.00318979
7.816000,-0.00318979
7.820000,-0.00159490
7.824000,0.03030303
7.828000,0.05582137
7.832000,0.08612440
7.836000,0.11642743
7.840000,0.12918660
7.844000,0.10526316
7.848000,0.07655502
7.852000,0.08133971
7.856000,0.12280702
7.860000,0.16905901
7.864000,0.19776715
7.868000,0.18979266
7.872000,0.13556619
7.876000,0.10845295
7.880000,0.11164274
7.884000,0.14513557
7.888000,0.17065391
7.892000,0.17543860
7.896000,0.15948963
7.900000,0.14673046
7.904000,0.12280702
7.908000,0.10207337
7.912000,0.11004785
7.916000,0.14673046
7.920000,0.13237640
7.924000,0.03508772
7.928000,-0.08452951
7.932000,-0.14035088
7.936000,-0.08771930
7.940000,0.02232855
7.944000,0.11961722
7.948000,0.15629984
7.952000,0.10685805
7.956000,0.03987241
7.960000,0.00797448
7.964000,0.00478469
7.968000,0.01913876
7.972000,0.03189793
7.976000,0.04625199
7.980000,0.05103668
7.984000,0.05103668
7.988000,0.04306220
7.992000,0.03030303
7.996000,0.03508772
8.000000,0.02870813
8.004000,0.01435407
8.008000,0.01913876
8.012000,0.01594896
8.016000,0.04146730
8.020000,0.11323764
8.024000,0.21850080
8.028000,0.29027113
8.032000,0.22966507
8.036000,0.05263158
8.040000,-0.07655502
8.044000,-0.05103668
8.048000,0.06539075
8.052000,0.17862839
8.056000,0.23604466
8.060000,0.29665072
8.064000,0.41786284
8.068000,0.57735247
8.072000,0.70015949
8.076000,0.70015949
8.080000,0.56299841
8.084000,0.36204147
8.088000,0.15789474
8.092000,-0.04625199
8.096000,-0.15470494
8.100000,-0.15948963
8.104000,-0.11802233
8.108000,-0.06379585
8.112000,-0.02232855
8.116000,-0.01594896
8.120000,-0.04306220
8.124000,-0.08133971
8.128000,-0.08293461
8.132000,-0.05741627
8.136000,-0.00637959
8.140000,0.01275917
8.144000,0.03668262
8.148000,0.07974482
8.152000,0.14673046
8.156000,0.14354067
8.160000,0.05901116
8.164000,-0.03508772
8.168000,-0.03030303
8.172000,0.01594896
8.176000,0.07814992
8.180000,0.11004785
8.184000,0.11323764
8.188000,0.07814992
8.192000,0.04146730
8.196000,0.00318979
8.200000,-0.01754386
8.204000,-0.00637959
8.208000,0.03987241
8.212000,0.11164274
8.216000,0.16905901
8.220000,0.16746411
8.224000,0.12280702
8.228000,0.06060606
8.232000,0.01275917
8.236000,0.00318979
8.240000,0.03827751
8.244000,0.07496013
8.248000,0.08452951
8.252000,0.04784689
8.256000,-0.02711324
8.260000,-0.05901116
8.264000,-0.06539075
8.268000,-0.03668262
8.272000,-0.02073365
8.276000,-0.01594896
8.280000,-0.01275917
8.284000,-0.05901116
8.288000,-0.10047847
8.292000,-0.11483254
8.296000,-0.09409888
8.300000,-0.08452951
8.304000,-0.09409888
8.308000,-0.09728868
8.312000,-0.11961722
8.316000,-0.12599681
8.320000,-0.11483254
8.324000,-0.08133971
8.328000,-0.01913876
8.332000,0.04146730
8.336000,0.04306220
8.340000,-0.01116427
8.344000,-0.06858054
8.348000,-0.08133971
8.352000,-0.05103668
8.356000,-0.00159490
8.360000,0.02392344
8.364000,0.04944179
8.368000,0.05901116
8.372000,0.03508772
8.376000,0.04784689
8.380000,0.06539075
8.384000,0.01913876
8.388000,-0.05901116
8.392000,-0.09569378
8.396000,-0.06698565
8.400000,0.00797448
8.404000,0.07336523
8.408000,0.08612440
8.412000,0.05741627
8.416000,0.02392344
8.420000,0.00478469
8.424000,0.00000000
8.428000,0.01913876
8.432000,0.05901116
8.436000,0.08293461
8.440000,0.11164274
8.444000,0.12599681
8.448000,0.13397129
8.452000,0.16746411
8.456000,0.17224880
8.460000,0.17384370
8.464000,0.18819777
8.468000,0.20095694
8.472000,0.18660287
8.476000,0.15629984
8.480000,0.10207337
8.484000,0.06220096
8.488000,0.02551834
8.492000,-0.01116427
8.496000,-0.02232855
8.500000,0.00000000
8.504000,0.03189793
8.508000,0.08612440
8.512000,0.10047847
8.516000,0.06539075
8.520000,0.00318979
8.524000,-0.01116427
8.528000,0.01435407
8.532000,0.04625199
8.536000,0.03668262
8.540000,-0.00318979
8.544000,-0.04465710
8.548000,-0.06698565
8.552000,-0.06539075
8.556000,-0.05582137
8.560000,-0.05422648
8.564000,-0.05422648
8.568000,-0.04306220
8.572000,-0.03827751
8.576000,-0.03827751
8.580000,-0.05741627
8.584000,-0.07177033
8.588000,-0.08771930
8.592000,-0.09569378
8.596000,-0.08133971
8.600000,-0.08133971
8.604000,-0.10207337
8.608000,-0.10047847
8.612000,-0.06379585
8.616000,-0.02551834
8.620000,0.00159490
8.624000,0.00159490
8.628000,0.01913876
8.632000,0.12280702
8.636000,0.28389155
8.640000,0.43700159
8.644000,0.54385965
8.648000,0.60446571
8.652000,0.60446571
8.656000,0.53269537
8.660000,0.42743222
8.664000,0.23763955
8.668000,0.03349282
8.672000,-0.12440191
8.676000,-0.16905901
8.680000,-0.15629984
8.684000,-0.12440191
8.688000,-0.11642743
8.692000,-0.14194577
8.696000,-0.15789474
8.700000,-0.14832536
8.704000,-0.12121212
8.708000,-0.10047847
8.712000,-0.09090909
8.716000,-0.10526316
8.720000,-0.11323764
8.724000,-0.13716108
8.728000,-0.13397129
8.732000,-0.13556619
8.736000,-0.12759171
8.740000,-0.11164274
8.744000,-0.08452951
8.748000,-0.07017544
8.752000,-0.06858054
8.756000,-0.07336523
8.760000,-0.09409888
8.764000,-0.11004785
8.768000,-0.11802233
8.772000,-0.12121212
8.776000,-0.11483254
8.780000,-0.12759171
8.784000,-0.12759171
8.788000,-0.11483254
8.792000,-0.10845295
8.796000,-0.11483254
8.800000,-0.12759171
8.804000,-0.14673046
8.808000,-0.17384370
8.812000,-0.19298246
8.816000,-0.19298246
8.820000,-0.16905901
8.824000,-0.14992026
8.828000,-0.11483254
8.832000,-0.06858054
8.836000,-0.05901116
8.840000,-0.11323764
8.844000,-0.17065391
8.848000,-0.16427432
8.852000,-0.12599681
8.856000,-0.10047847
8.860000,-0.08452951
8.864000,-0.09728868
8.868000,-0.09250399
8.872000,-0.08612440
8.876000,-0.07496013
8.880000,-0.05263158
8.884000,-0.01116427
8.888000,0.00797448
8.892000,-0.02551834
8.896000,-0.06379585
8.900000,-0.04784689
8.904000,-0.01275917
8.908000,-0.02551834
8.912000,-0.08612440
8.916000,-0.11483254
8.920000,-0.07814992
8.924000,-0.01116427
8.928000,0.00956938
8.932000,-0.01913876
8.936000,-0.05741627
8.940000,-0.05901116
8.944000,-0.03987241
8.948000,-0.01754386
8.952000,0.00956938
8.956000,0.01116427
8.960000,-0.01754386
8.964000,-0.03987241
8.968000,-0.01275917
8.972000,0.02551834
8.976000,0.06379585
8.980000,0.07974482
8.984000,0.05901116
8.988000,0.04625199
8.992000,0.05422648
8.996000,0.07017544
9.000000,0.07814992
9.004000,0.04784689
9.008000,0.01116427
9.012000,-0.01913876
9.016000,-0.00956938
9.020000,0.00637959
9.024000,0.01435407
9.028000,0.02870813
9.032000,0.03987241
9.036000,0.05901116
9.040000,0.06220096
9.044000,0.04465710
9.048000,0.02711324
9.052000,0.03827751
9.056000,0.03349282
9.060000,0.02870813
9.064000,0.02392344
9.068000,0.01594896
9.072000,-0.00478469
9.076000,-0.01275917
9.080000,0.00637959
9.084000,0.02711324
9.088000,0.02551834
9.092000,0.02711324
9.096000,0.00637959
9.100000,0.00159490
9.104000,0.01754386
9.108000,0.04625199
9.112000,0.05741627
9.116000,0.04465710
9.120000,0.03030303
9.124000,0.01754386
9.128000,0.01435407
9.132000,0.03349282
9.136000,0.05103668
9.140000,0.04306220
9.144000,0.01116427
9.148000,-0.00797448
9.152000,-0.00956938
9.156000,0.01275917
9.160000,0.03827751
9.164000,0.04625199
9.168000,0.02073365
9.172000,0.02870813
9.176000,0.07496013
9.180000,0.09250399
9.184000,0.03508772
9.188000,-0.04944179
9.192000,-0.03668262
9.196000,0.07336523
9.200000,0.25677831
9.204000,0.45295056
9.208000,0.59330144
9.212000,0.65709729
9.216000,0.64912281
9.220000,0.55980861
9.224000,0.39872408
9.228000,0.20095694
9.232000,0.02392344
9.236000,-0.10207337
9.240000,-0.14992026
9.244000,-0.15311005
9.248000,-0.14354067
9.252000,-0.14354067
9.256000,-0.15948963
9.260000,-0.17543860
9.264000,-0.19776715
9.268000,-0.18819777
9.272000,-0.17065391
9.276000,-0.16427432
9.280000,-0.17384370
9.284000,-0.19138756
9.288000,-0.19936204
9.292000,-0.20255183
9.296000,-0.21531100
9.300000,-0.24401914
9.304000,-0.25199362
9.308000,-0.23923445
9.312000,-0.22488038
9.316000,-0.22488038
9.320000,-0.25199362
9.324000,-0.28229665
9.328000,-0.28867624
9.332000,-0.28708134
9.336000,-0.29186603
9.340000,-0.29984051
9.344000,-0.32535885
9.348000,-0.35247209
9.352000,-0.37161085
9.356000,-0.39074960
9.360000,-0.37958533
9.364000,-0.35566188
9.368000,-0.34130781
9.372000,-0.35087719
9.376000,-0.38277512
9.380000,-0.41467305
9.384000,-0.41945774
9.388000,-0.40829346
9.392000,-0.40829346
9.396000,-0.42424242
9.400000,-0.43381180
9.404000,-0.44497608
9.408000,-0.43540670
9.412000,-0.42105263
9.416000,-0.39393939
9.420000,-0.36682616
9.424000,-0.36204147
9.428000,-0.38277512
9.432000,-0.42424242
9.436000,-0.45295056
9.440000,-0.43221691
9.444000,-0.41307815
9.448000,-0.41626794
9.452000,-0.44816587
9.456000,-0.47527911
9.460000,-0.46889952
9.464000,-0.44816587
9.468000,-0.43062201
9.472000,-0.42583732
9.476000,-0.42743222
9.480000,-0.43381180
9.484000,-0.44178628
9.488000,-0.44657097
9.492000,-0.44497608
9.496000,-0.43381180
9.500000,-0.41945774
9.504000,-0.39872408
9.508000,-0.38437002
9.512000,-0.37958533
9.516000,-0.38277512
9.520000,-0.39872408
9.524000,-0.39872408
9.528000,-0.39393939
9.532000,-0.37001595
9.536000,-0.32854864
9.540000,-0.31259968
9.544000,-0.33971292
9.548000,-0.37639553
9.552000,-0.39712919
9.556000,-0.40669856
9.560000,-0.40829346
9.564000,-0.40350877
9.568000,-0.39712919
9.572000,-0.37799043
9.576000,-0.37320574
9.580000,-0.37639553
9.584000,-0.37799043
9.588000,-0.38596491
9.592000,-0.39712919
9.596000,-0.39872408
9.600000,-0.40829346
9.604000,-0.42105263
9.608000,-0.42105263
9.612000,-0.41626794
9.616000,-0.40669856
9.620000,-0.40191388
9.624000,-0.39393939
9.628000,-0.40350877
9.632000,-0.43221691
9.636000,-0.45135566
9.640000,-0.45614035
9.644000,-0.43381180
9.648000,-0.42105263
9.652000,-0.41148325
9.656000,-0.40191388
9.660000,-0.42105263
9.664000,-0.44497608
9.668000,-0.45135566
9.672000,-0.42902711
9.676000,-0.40350877
9.680000,-0.37958533
9.684000,-0.39074960
9.688000,-0.41945774
9.692000,-0.44338118
9.696000,-0.45135566
9.700000,-0.43221691
9.704000,-0.41148325
9.708000,-0.39393939
9.712000,-0.39553429
9.716000,-0.40510367
9.720000,-0.40191388
9.724000,-0.38277512
9.728000,-0.35247209
9.732000,-0.32216906
9.736000,-0.31100478
9.740000,-0.30622010
9.744000,-0.32216906
9.748000,-0.32057416
9.752000,-0.30781499
9.756000,-0.28389155
9.760000,-0.25518341
9.764000,-0.19936204
9.768000,-0.12280702
9.772000,-0.07336523
9.776000,-0.05103668
9.780000,-0.02711324
9.784000,0.05901116
9.788000,0.20255183
9.792000,0.33333333
9.796000,0.36204147
9.800000,0.28229665
9.804000,0.09888357
9.808000,-0.07336523
9.812000,-0.18181818
9.816000,-0.21531100
9.820000,-0.19138756
9.824000,-0.15629984
9.828000,-0.12599681
9.832000,-0.09888357
9.836000,-0.06060606
9.840000,-0.04146730
9.844000,-0.05582137
9.848000,-0.09250399
9.852000,-0.14992026
9.856000,-0.16427432
9.860000,-0.12121212
9.864000,-0.06379585
9.868000,-0.02392344
9.872000,-0.00637959
9.876000,-0.00637959
9.880000,-0.00797448
9.884000,-0.00956938
9.888000,-0.00478469
9.892000,-0.00159490
9.896000,0.00637959
9.900000,0.00478469
9.904000,0.01435407
9.908000,0.06220096
9.912000,0.07496013
9.916000,0.00797448
9.920000,-0.08771930
9.924000,-0.11164274
9.928000,-0.06220096
9.932000,-0.04306220
9.936000,-0.09409888
9.940000,-0.14513557
9.944000,-0.17224880
9.948000,-0.19138756
9.952000,-0.22328549
9.956000,-0.24720893
9.960000,-0.24720893
9.964000,-0.21531100
9.968000,-0.19298246
9.972000,-0.18819777
9.976000,-0.19776715
9.980000,-0.21850080
9.984000,-0.23763955
9.988000,-0.23604466
9.992000,-0.21850080
9.996000,-0.19457735
10.000000,-0.16746411
10.004000,-0.15311005
10.008000,-0.13397129
10.012000,-0.09569378
10.016000,-0.05741627
10.020000,-0.02392344
10.024000,0.03508772
10.028000,0.11642743
10.032000,0.17862839
10.036000,0.16267943
10.040000,0.11961722
10.044000,0.08133971
10.048000,0.05422648
10.052000,0.06698565
10.056000,0.10207337
10.060000,0.11961722
10.064000,0.11323764
10.068000,0.08612440
10.072000,0.07655502
10.076000,0.06698565
10.080000,0.06060606
10.084000,0.02392344
10.088000,-0.03827751
10.092000,-0.07336523
10.096000,-0.06698565
10.100000,-0.02870813
10.104000,0.03349282
10.108000,0.06858054
10.112000,0.04625199
10.116000,-0.04625199
10.120000,-0.12759171
10.124000,-0.14035088
10.128000,-0.10526316
10.132000,-0.06060606
10.136000,-0.04465710
10.140000,-0.04625199
10.144000,-0.02392344
10.148000,0.02232855
10.152000,0.09250399
10.156000,0.19457735
10.160000,0.27272727
10.164000,0.34609250
10.168000,0.39234450
10.172000,0.38596491
10.176000,0.35247209
10.180000,0.33333333
10.184000,0.34290271
10.188000,0.36682616
10.192000,0.37958533
10.196000,0.41626794
10.200000,0.41626794
10.204000,0.37320574
10.208000,0.29984051
10.212000,0.22807018
10.216000,0.14992026
10.220000,0.07974482
10.224000,0.02232855
10.228000,-0.02870813
10.232000,-0.07974482
10.236000,-0.11961722
10.240000,-0.21531100
10.244000,-0.30143541
10.248000,-0.38596491
10.252000,-0.42583732
10.256000,-0.43700159
10.260000,-0.41626794
10.264000,-0.41945774
10.268000,-0.43859649
10.272000,-0.48006380
10.276000,-0.51196172
10.280000,-0.52950558
10.284000,-0.52153110
10.288000,-0.51674641
10.292000,-0.51674641
10.296000,-0.51834131
10.300000,-0.51036683
10.304000,-0.51993620
10.308000,-0.51036683
10.312000,-0.51196172
10.316000,-0.52472089
10.320000,-0.53588517
10.324000,-0.53748006
10.328000,-0.53748006
10.332000,-0.53269537
10.336000,-0.53429027
10.340000,-0.53588517
10.344000,-0.54066986
10.348000,-0.54385965
10.352000,-0.54545455
10.356000,-0.54066986
10.360000,-0.53907496
10.364000,-0.53588517
10.368000,-0.54226475
10.372000,-0.54066986
10.376000,-0.54385965
10.380000,-0.54545455
10.384000,-0.54545455
10.388000,-0.54385965
10.392000,-0.54226475
10.396000,-0.54385965
10.400000,-0.53269537
10.404000,-0.53588517
10.408000,-0.54066986
10.412000,-0.53907496
10.416000,-0.53748006
10.420000,-0.53588517
10.424000,-0.53588517
10.428000,-0.53429027
10.432000,-0.53429027
10.436000,-0.52472089
10.440000,-0.52791069
10.444000,-0.52950558
10.448000,-0.53269537
10.452000,-0.53588517
10.456000,-0.53748006
10.460000,-0.52631579
10.464000,-0.51993620
10.468000,-0.51993620
10.472000,-0.51355662
10.476000,-0.51993620
10.480000,-0.51993620
10.484000,-0.51674641
10.488000,-0.52153110
10.492000,-0.51834131
10.496000,-0.51036683
10.500000,-0.50717703
10.504000,-0.50239234
10.508000,-0.50558214
10.512000,-0.50877193
10.516000,-0.50398724
10.520000,-0.50558214
10.524000,-0.49601276
10.528000,-0.48644338
10.532000,-0.48006380
10.536000,-0.46411483
10.540000,-0.43221691
10.544000,-0.41945774
10.548000,-0.42105263
10.552000,-0.43221691
10.556000,-0.42264753
10.560000,-0.39872408
10.564000,-0.35885167
10.568000,-0.30462520
10.572000,-0.23763955
10.576000,-0.14035088
10.580000,-0.00478469
10.584000,0.12440191
10.588000,0.23285486
10.592000,0.28070175
10.596000,0.25039872
10.600000,0.19138756
10.604000,0.22169059
10.608000,0.33492823
10.612000,0.47846890
10.616000,0.58373206
10.620000,0.62998405
10.624000,0.62838915
10.628000,0.61084530
10.632000,0.60287081
10.636000,0.61722488
10.640000,0.63636364
10.644000,0.65869219
10.648000,0.66985646
10.652000,0.68261563
10.656000,0.68580542
10.660000,0.70175439
10.664000,0.72089314
10.668000,0.73205742
10.672000,0.74481659
10.676000,0.74641148
10.680000,0.74800638
10.684000,0.75598086
10.688000,0.75757576
10.692000,0.76555024
10.696000,0.77990431
10.700000,0.78628389
10.704000,0.78628389
10.708000,0.79904306
10.712000,0.80223285
10.716000,0.80542265
10.720000,0.81658692
10.724000,0.82934609
10.728000,0.83094099
10.732000,0.84210526
10.736000,0.85964912
10.740000,0.85964912
10.744000,0.85964912
10.748000,0.86283892
10.752000,0.86602871
10.756000,0.86921850
10.760000,0.88516746
10.764000,0.88676236
10.768000,0.89314195
10.772000,0.89314195
10.776000,0.89473684
10.780000,0.89633174
10.784000,0.89314195
10.788000,0.89952153
10.792000,0.90271132
10.796000,0.91228070
10.800000,0.91228070
10.804000,0.91706539
10.808000,0.92185008
10.812000,0.92344498
10.816000,0.92982456
10.820000,0.93460925
10.824000,0.93460925
10.828000,0.93779904
10.832000,0.94896332
10.836000,0.95215311
10.840000,0.95215311
10.844000,0.95374801
10.848000,0.95693780
10.852000,0.95853270
10.856000,0.96172249
10.860000,0.97448166
10.864000,0.97448166
10.868000,0.97607656
10.872000,0.98086124
10.876000,0.98245614
10.880000,0.97926635
10.884000,0.97448166
10.888000,0.97448166
10.892000,0.98086124
10.896000,0.98883573
10.900000,0.99043062
10.904000,0.99362041
10.908000,0.99202552
10.912000,0.99840510
10.916000,0.98724083
10.920000,0.99521531
10.924000,0.99681021
10.928000,1.00000000
10.932000,0.98564593
10.936000,0.96012759
10.940000,0.90749601
10.944000,0.82615630
10.948000,0.76714514
10.952000,0.74162679
10.956000,0.75119617
10.960000,0.75279107
10.964000,0.74800638
10.968000,0.74162679
10.972000,0.74003190
10.976000,0.73205742
10.980000,0.73046252
10.984000,0.74800638
10.988000,0.76714514
10.992000,0.77990431
10.996000,0.76236045
11.000000,0.75917065
11.004000,0.74481659
11.008000,0.75598086
11.012000,0.74481659
11.016000,0.74481659
11.020000,0.72567783
11.024000,0.72089314
11.028000,0.71929825
11.032000,0.72886762
11.036000,0.74322169
11.040000,0.75757576
11.044000,0.77033493
11.048000,0.74481659
11.052000,0.70015949
11.056000,0.68421053
11.060000,0.71132376
11.064000,0.74800638
11.068000,0.76555024
11.072000,0.74960128
11.076000,0.74003190
11.080000,0.72567783
11.084000,0.72089314
11.088000,0.71451356
11.092000,0.73365231
11.096000,0.74003190
11.100000,0.74960128
11.104000,0.74003190
11.108000,0.72886762
11.112000,0.71610845
11.116000,0.71451356
11.120000,0.70175439
11.124000,0.67304625
11.128000,0.65550239
11.132000,0.62998405
11.136000,0.63317384
11.140000,0.63795853
11.144000,0.63476874
11.148000,0.63795853
11.152000,0.66188198
11.156000,0.68261563
11.160000,0.70494418
11.164000,0.70175439
11.168000,0.69856459
11.172000,0.68102073
11.176000,0.66347687
11.180000,0.64593301
11.184000,0.64433812
11.188000,0.64593301
11.192000,0.64114833
11.196000,0.65071770
11.200000,0.66028708
11.204000,0.65550239
11.208000,0.64433812
11.212000,0.62200957
11.216000,0.61562998
11.220000,0.62041467
11.224000,0.63476874
11.228000,0.64593301
11.232000,0.65550239
11.236000,0.65869219
11.240000,0.67623604
11.244000,0.66666667
11.248000,0.64433812
11.252000,0.63795853
11.256000,0.64912281
11.260000,0.68102073
11.264000,0.72408293
11.268000,0.72886762
11.272000,0.70494418
11.276000,0.67304625
11.280000,0.65550239
11.284000,0.63636364
11.288000,0.63636364
11.292000,0.63955343
11.296000,0.66347687
11.300000,0.67942584
11.304000,0.69537480
11.308000,0.68740032
11.312000,0.67623604
11.316000,0.65709729
11.320000,0.64433812
11.324000,0.63955343
11.328000,0.63157895
11.332000,0.65071770
11.336000,0.66985646
11.340000,0.67304625
11.344000,0.65709729
11.348000,0.65709729
11.352000,0.65709729
11.356000,0.64593301
11.360000,0.60925040
11.364000,0.59170654
11.368000,0.58851675
11.372000,0.59330144
11.376000,0.60925040
11.380000,0.59808612
11.384000,0.59968102
11.388000,0.59170654
11.392000,0.58851675
11.396000,0.58373206
11.400000,0.59170654
11.404000,0.60127592
11.408000,0.58532695
11.412000,0.57256778
11.416000,0.57256778
11.420000,0.57256778
11.424000,0.58213716
11.428000,0.58692185
11.432000,0.59011164
11.436000,0.59489633
11.440000,0.60446571
11.444000,0.60765550
11.448000,0.61244019
11.452000,0.61084530
11.456000,0.61881978
11.460000,0.62519936
11.464000,0.63795853
11.468000,0.65390750
11.472000,0.66347687
11.476000,0.67942584
11.480000,0.70334928
11.484000,0.74162679
11.488000,0.79585327
11.492000,0.85326954
11.496000,0.88676236
11.500000,0.89792663
11.504000,0.89792663
11.508000,0.87240829
11.512000,0.84370016
11.516000,0.78149920
11.520000,0.69856459
11.524000,0.63317384
11.528000,0.61084530
11.532000,0.61403509
11.536000,0.62998405
11.540000,0.64912281
11.544000,0.67464115
11.548000,0.68102073
11.552000,0.66985646
11.556000,0.66826156
11.560000,0.67145136
11.564000,0.69059011
11.568000,0.68899522
11.572000,0.67623604
11.576000,0.65231260
11.580000,0.65231260
11.584000,0.66826156
11.588000,0.66826156
11.592000,0.68421053
11.596000,0.69696970
11.600000,0.71291866
11.604000,0.71132376
11.608000,0.70334928
11.612000,0.67783094
11.616000,0.67623604
11.620000,0.68899522
11.624000,0.70494418
11.628000,0.69696970
11.632000,0.69059011
11.636000,0.68421053
11.640000,0.67623604
11.644000,0.67783094
11.648000,0.68261563
11.652000,0.68102073
11.656000,0.67304625
11.660000,0.66188198
11.664000,0.63476874
11.668000,0.62041467
11.672000,0.61244019
11.676000,0.60925040
11.680000,0.59649123
11.684000,0.59489633
11.688000,0.57256778
11.692000,0.54864434
11.696000,0.55183413
11.700000,0.54864434
11.704000,0.53748006
11.708000,0.53110048
11.712000,0.51515152
11.716000,0.50079745
11.720000,0.48484848
11.724000,0.49122807
11.728000,0.52472089
11.732000,0.55023923
11.736000,0.57416268
11.740000,0.58851675
11.744000,0.58851675
11.748000,0.59649123
11.752000,0.61244019
11.756000,0.63636364
11.760000,0.66028708
11.764000,0.66507177
11.768000,0.65390750
11.772000,0.62838915
11.776000,0.61244019
11.780000,0.59968102
11.784000,0.59170654
11.788000,0.57575758
11.792000,0.56140351
11.796000,0.55980861
11.800000,0.57097289
11.804000,0.55980861
11.808000,0.55502392
11.812000,0.52950558
11.816000,0.51993620
11.820000,0.51515152
11.824000,0.52631579
11.828000,0.54226475
11.832000,0.55023923
11.836000,0.52950558
11.840000,0.48325359
11.844000,0.45454545
11.848000,0.45614035
11.852000,0.46730463
11.856000,0.48165869
11.860000,0.48325359
11.864000,0.48484848
11.868000,0.48803828
11.872000,0.48165869
11.876000,0.46570973
11.880000,0.43221691
11.884000,0.41307815
11.888000,0.40350877
11.892000,0.42424242
11.896000,0.44497608
11.900000,0.45614035
11.904000,0.45135566
11.908000,0.43700159
11.912000,0.42583732
11.916000,0.40510367
11.920000,0.37958533
11.924000,0.36204147
11.928000,0.35087719
11.932000,0.33971292
11.936000,0.30940989
11.940000,0.27113238
11.944000,0.26634769
11.948000,0.25358852
11.952000,0.25039872
11.956000,0.24880383
11.960000,0.25677831
11.964000,0.24401914
11.968000,0.23125997
11.972000,0.22169059
11.976000,0.20255183
11.980000,0.19776715
11.984000,0.18819777
11.988000,0.17543860
11.992000,0.13875598
11.996000,0.10845295
12.000000,0.09569378
12.004000,0.12440191
12.008000,0.18819777
12.012000,0.23763955
12.016000,0.24561404
12.020000,0.23125997
12.024000,0.19298246
12.028000,0.18181818
12.032000,0.18181818
12.036000,0.18500797
12.040000,0.19298246
12.044000,0.19936204
12.048000,0.20095694
12.052000,0.22169059
12.056000,0.27591707
12.060000,0.34130781
12.064000,0.39234450
12.068000,0.41626794
12.072000,0.41148325
12.076000,0.38915470
12.080000,0.34130781
12.084000,0.26953748
12.088000,0.16108453
12.092000,0.07655502
12.096000,0.02392344
12.100000,0.02392344
12.104000,0.05422648
12.108000,0.08771930
12.112000,0.07336523
12.116000,0.03827751
12.120000,0.01116427
12.124000,0.00956938
12.128000,0.04146730
12.132000,0.06698565
12.136000,0.06379585
12.140000,0.05582137
12.144000,0.04625199
12.148000,0.03349282
12.152000,0.03030303
12.156000,0.00637959
12.160000,-0.01594896
12.164000,-0.01754386
12.168000,-0.01435407
12.172000,-0.01275917
12.176000,-0.01594896
12.180000,-0.02232855
12.184000,-0.02392344
12.188000,-0.02870813
12.192000,-0.03030303
12.196000,-0.03668262
12.200000,-0.04784689
12.204000,-0.05901116
12.208000,-0.07017544
12.212000,-0.09090909
12.216000,-0.11642743
12.220000,-0.13556619
12.224000,-0.13875598
12.228000,-0.14992026
12.232000,-0.16267943
12.236000,-0.17543860
12.240000,-0.18660287
12.244000,-0.20893142
12.248000,-0.25039872
12.252000,-0.26156300
12.256000,-0.26315789
12.260000,-0.26634769
12.264000,-0.24561404
12.268000,-0.22807018
12.272000,-0.23444976
12.276000,-0.24242424
12.280000,-0.24401914
12.284000,-0.22328549
12.288000,-0.19617225
12.292000,-0.17543860
12.296000,-0.16746411
12.300000,-0.16108453
12.304000,-0.16746411
12.308000,-0.16267943
12.312000,-0.15629984
12.316000,-0.14992026
12.320000,-0.14992026
12.324000,-0.15948963
12.328000,-0.16108453
12.332000,-0.14673046
12.336000,-0.14354067
12.340000,-0.14354067
12.344000,-0.15629984
12.348000,-0.17703349
12.352000,-0.19617225
12.356000,-0.20414673
12.360000,-0.19776715
12.364000,-0.21212121
12.368000,-0.23444976
12.372000,-0.25996810
12.376000,-0.24880383
12.380000,-0.23444976
12.384000,-0.22807018
12.388000,-0.23125997
12.392000,-0.25199362
12.396000,-0.26315789
12.400000,-0.26794258
12.404000,-0.25677831
12.408000,-0.23763955
12.412000,-0.23604466
12.416000,-0.24561404
12.420000,-0.24880383
12.424000,-0.24242424
12.428000,-0.21531100
12.432000,-0.21371611
12.436000,-0.25677831
12.440000,-0.30462520
12.444000,-0.33014354
12.448000,-0.31259968
12.452000,-0.29505582
12.456000,-0.26953748
12.460000,-0.26953748
12.464000,-0.27751196
12.468000,-0.28229665
12.472000,-0.27910686
12.476000,-0.27751196
12.480000,-0.28070175
12.484000,-0.26953748
12.488000,-0.27272727
12.492000,-0.29186603
12.496000,-0.31100478
12.500000,-0.31897927
12.504000,-0.32216906
12.508000,-0.31738437
12.512000,-0.30781499
12.516000,-0.30462520
12.520000,-0.30303030
12.524000,-0.29984051
12.528000,-0.27910686
12.532000,-0.27272727
12.536000,-0.27113238
12.540000,-0.26953748
12.544000,-0.27113238
12.548000,-0.26475279
12.552000,-0.26634769
12.556000,-0.25677831
12.560000,-0.25996810
12.564000,-0.25358852
12.568000,-0.24561404
12.572000,-0.24880383
12.576000,-0.26953748
12.580000,-0.28867624
12.584000,-0.28867624
12.588000,-0.29665072
12.592000,-0.30781499
12.596000,-0.31578947
12.600000,-0.31578947
12.604000,-0.28389155
12.608000,-0.20733652
12.612000,-0.11164274
12.616000,-0.02551834
12.620000,0.03189793
12.624000,0.04465710
12.628000,0.03987241
12.632000,-0.00318979
12.636000,-0.07177033
12.640000,-0.16746411
12.644000,-0.29824561
12.648000,-0.39553429
12.652000,-0.46092504
12.656000,-0.47846890
12.660000,-0.46092504
12.664000,-0.42424242
12.668000,-0.41626794
12.672000,-0.42583732
12.676000,-0.45933014
12.680000,-0.49920255
12.684000,-0.51674641
12.688000,-0.49920255
12.692000,-0.45295056
12.696000,-0.42105263
12.700000,-0.41467305
12.704000,-0.41148325
12.708000,-0.41467305
12.712000,-0.42583732
12.716000,-0.42105263
12.720000,-0.41626794
12.724000,-0.42583732
12.728000,-0.44976077
12.732000,-0.47208931
12.736000,-0.47687400
12.740000,-0.45454545
12.744000,-0.43062201
12.748000,-0.43381180
12.752000,-0.44657097
12.756000,-0.44657097
12.760000,-0.40829346
12.764000,-0.36044657
12.768000,-0.34449761
12.772000,-0.35725678
12.776000,-0.37799043
12.780000,-0.39872408
12.784000,-0.40988836
12.788000,-0.40829346
12.792000,-0.40191388
12.796000,-0.39393939
12.800000,-0.38596491
12.804000,-0.38437002
12.808000,-0.39074960
12.812000,-0.40350877
12.816000,-0.41467305
12.820000,-0.42264753
12.824000,-0.42583732
12.828000,-0.42902711
12.832000,-0.45614035
12.836000,-0.46889952
12.840000,-0.46570973
12.844000,-0.44816587
12.848000,-0.44497608
12.852000,-0.45135566
12.856000,-0.45135566
12.860000,-0.43700159
12.864000,-0.40191388
12.868000,-0.38915470
12.872000,-0.39872408
12.876000,-0.41307815
12.880000,-0.41467305
12.884000,-0.40669856
12.888000,-0.38915470
12.892000,-0.38755981
12.896000,-0.39712919
12.900000,-0.41786284
12.904000,-0.41626794
12.908000,-0.40829346
12.912000,-0.38277512
12.916000,-0.35885167
12.920000,-0.35247209
12.924000,-0.36363636
12.928000,-0.37001595
12.932000,-0.36363636
12.936000,-0.34928230
12.940000,-0.33173844
12.944000,-0.31738437
12.948000,-0.28867624
12.952000,-0.25039872
12.956000,-0.22328549
12.960000,-0.20255183
12.964000,-0.19776715
12.968000,-0.19936204
12.972000,-0.21531100
12.976000,-0.24242424
12.980000,-0.27432217
12.984000,-0.30622010
12.988000,-0.32854864
12.992000,-0.33492823
12.996000,-0.33173844
13.000000,-0.31259968
13.004000,-0.30462520
13.008000,-0.30303030
13.012000,-0.32535885
13.016000,-0.33492823
13.020000,-0.34290271
13.024000,-0.32216906
13.028000,-0.30462520
13.032000,-0.29505582
13.036000,-0.29027113
13.040000,-0.29665072
13.044000,-0.30622010
13.048000,-0.33173844
13.052000,-0.35566188
13.056000,-0.38596491
13.060000,-0.37001595
13.064000,-0.35247209
13.068000,-0.34290271
13.072000,-0.35406699
13.076000,-0.34449761
13.080000,-0.33652313
13.084000,-0.33173844
13.088000,-0.32376396
13.092000,-0.31738437
13.096000,-0.31259968
13.100000,-0.31738437
13.104000,-0.32376396
13.108000,-0.33014354
13.112000,-0.33333333
13.116000,-0.34609250
13.120000,-0.34609250
13.124000,-0.32376396
13.128000,-0.30462520
13.132000,-0.29824561
13.136000,-0.29186603
13.140000,-0.30781499
13.144000,-0.33333333
13.148000,-0.33811802
13.152000,-0.31100478
13.156000,-0.27272727
13.160000,-0.22488038
13.164000,-0.18500797
13.168000,-0.18022329
13.172000,-0.20414673
13.176000,-0.19617225
13.180000,-0.17384370
13.184000,-0.11802233
13.188000,-0.01594896
13.192000,0.08133971
13.196000,0.14194577
13.200000,0.14194577
13.204000,0.09090909
13.208000,-0.01913876
13.212000,-0.17862839
13.216000,-0.32376396
13.220000,-0.40031898
13.224000,-0.40510367
13.228000,-0.36363636
13.232000,-0.32376396
13.236000,-0.29027113
13.240000,-0.28867624
13.244000,-0.30462520
13.248000,-0.32216906
13.252000,-0.32376396
13.256000,-0.31738437
13.260000,-0.32535885
13.264000,-0.33971292
13.268000,-0.35247209
13.272000,-0.35566188
13.276000,-0.33173844
13.280000,-0.32535885
13.284000,-0.32854864
13.288000,-0.33652313
13.292000,-0.34609250
13.296000,-0.34290271
13.300000,-0.33492823
13.304000,-0.33811802
13.308000,-0.32376396
13.312000,-0.31100478
13.316000,-0.29346093
13.320000,-0.28070175
13.324000,-0.26475279
13.328000,-0.29027113
13.332000,-0.32695375
13.336000,-0.33811802
13.340000,-0.33014354
13.344000,-0.30940989
13.348000,-0.29505582
13.352000,-0.29824561
13.356000,-0.30462520
13.360000,-0.32376396
13.364000,-0.33811802
13.368000,-0.34449761
13.372000,-0.34928230
13.376000,-0.33492823
13.380000,-0.32854864
13.384000,-0.32854864
13.388000,-0.32216906
13.392000,-0.30143541
13.396000,-0.29027113
13.400000,-0.27751196
13.404000,-0.28070175
13.408000,-0.29665072
13.412000,-0.30303030
13.416000,-0.30622010
13.420000,-0.33811802
13.424000,-0.35885167
13.428000,-0.32376396
13.432000,-0.26315789
13.436000,-0.23125997
13.440000,-0.24880383
13.444000,-0.26634769
13.448000,-0.26794258
13.452000,-0.25518341
13.456000,-0.25677831
13.460000,-0.25996810
13.464000,-0.23763955
13.468000,-0.21212121
13.472000,-0.19617225
13.476000,-0.20095694
13.480000,-0.22169059
13.484000,-0.25358852
13.488000,-0.26475279
13.492000,-0.25518341
13.496000,-0.22807018
13.500000,-0.20414673
13.504000,-0.20574163
13.508000,-0.20893142
13.512000,-0.22488038
13.516000,-0.23763955
13.520000,-0.23285486
13.524000,-0.21371611
13.528000,-0.17862839
13.532000,-0.15789474
13.536000,-0.16586922
13.540000,-0.17543860
13.544000,-0.19936204
13.548000,-0.22009569
13.552000,-0.21850080
13.556000,-0.18979266
13.560000,-0.15789474
13.564000,-0.14035088
13.568000,-0.15311005
13.572000,-0.15948963
13.576000,-0.16746411
13.580000,-0.18660287
13.584000,-0.15789474
13.588000,-0.09569378
13.592000,-0.05422648
13.596000,-0.07336523
13.600000,-0.13716108
13.604000,-0.18500797
13.608000,-0.16746411
13.612000,-0.15629984
13.616000,-0.14832536
13.620000,-0.13716108
13.624000,-0.14035088
13.628000,-0.14035088
13.632000,-0.13875598
13.636000,-0.12759171
13.640000,-0.12280702
13.644000,-0.10685805
13.648000,-0.10685805
13.652000,-0.11961722
13.656000,-0.15151515
13.660000,-0.14992026
13.664000,-0.14194577
13.668000,-0.11483254
13.672000,-0.10366826
13.676000,-0.12440191
13.680000,-0.17224880
13.684000,-0.19617225
13.688000,-0.18660287
13.692000,-0.15470494
13.696000,-0.12759171
13.700000,-0.12121212
13.704000,-0.14673046
13.708000,-0.20095694
13.712000,-0.24242424
13.716000,-0.24082935
13.720000,-0.20414673
13.724000,-0.14354067
13.728000,-0.11323764
13.732000,-0.11323764
13.736000,-0.11483254
13.740000,-0.11802233
13.744000,-0.12121212
13.748000,-0.13078150
13.752000,-0.10685805
13.756000,-0.06220096
13.760000,0.01435407
13.764000,0.10845295
13.768000,0.21052632
13.772000,0.31100478
13.776000,0.37161085
13.780000,0.36523126
13.784000,0.31578947
13.788000,0.23125997
13.792000,0.10366826
13.796000,-0.05263158
13.800000,-0.18181818
13.804000,-0.23923445
13.808000,-0.23923445
13.812000,-0.21531100
13.816000,-0.19936204
13.820000,-0.18181818
13.824000,-0.17384370
13.828000,-0.15470494
13.832000,-0.11483254
13.836000,-0.09888357
13.840000,-0.13397129
13.844000,-0.17862839
13.848000,-0.21690590
13.852000,-0.22328549
13.856000,-0.18819777
13.860000,-0.14035088
13.864000,-0.10207337
13.868000,-0.07655502
13.872000,-0.09888357
13.876000,-0.13397129
13.880000,-0.16746411
13.884000,-0.17862839
13.888000,-0.17065391
13.892000,-0.15151515
13.896000,-0.12759171
13.900000,-0.11483254
13.904000,-0.09090909
13.908000,-0.09409888
13.912000,-0.12280702
13.916000,-0.16586922
13.920000,-0.17384370
13.924000,-0.13397129
13.928000,-0.10845295
13.932000,-0.08931419
13.936000,-0.08293461
13.940000,-0.07336523
13.944000,-0.08931419
13.948000,-0.12759171
13.952000,-0.16267943
13.956000,-0.18341308
13.960000,-0.13556619
13.964000,-0.04625199
13.968000,-0.00159490
13.972000,-0.02551834
13.976000,-0.08133971
13.980000,-0.12599681
13.984000,-0.11961722
13.988000,-0.07814992
13.992000,-0.03668262
13.996000,0.00159490
14.000000,0.04625199
14.004000,0.06060606
14.008000,0.06060606
14.012000,0.05741627
14.016000,0.06858054
14.020000,0.09250399
14.024000,0.11961722
14.028000,0.12918660
14.032000,0.12759171
14.036000,0.12280702
14.040000,0.12599681
14.044000,0.12599681
14.048000,0.12599681
14.052000,0.10207337
14.056000,0.09090909
14.060000,0.07496013
14.064000,0.08133971
14.068000,0.07177033
14.072000,0.04944179
14.076000,0.01913876
14.080000,0.03189793
14.084000,0.08293461
14.088000,0.12918660
14.092000,0.13397129
14.096000,0.06698565
14.100000,-0.03987241
14.104000,-0.10845295
14.108000,-0.10685805
14.112000,-0.03189793
14.116000,0.04944179
14.120000,0.09569378
14.124000,0.08452951
14.128000,0.05901116
14.132000,0.04944179
14.136000,0.06858054
14.140000,0.09569378
14.144000,0.12759171
14.148000,0.13875598
14.152000,0.15311005
14.156000,0.16267943
14.160000,0.14992026
14.164000,0.13716108
14.168000,0.13875598
14.172000,0.13875598
14.176000,0.12121212
14.180000,0.09888357
14.184000,0.08293461
14.188000,0.09250399
14.192000,0.10047847
14.196000,0.12440191
14.200000,0.14673046
14.204000,0.15629984
14.208000,0.14832536
14.212000,0.13397129
14.216000,0.13556619
14.220000,0.12918660
14.224000,0.13237640
14.228000,0.15789474
14.232000,0.18660287
14.236000,0.18819777
14.240000,0.18022329
14.244000,0.17224880
14.248000,0.14513557
14.252000,0.10685805
14.256000,0.10366826
14.260000,0.11004785
14.264000,0.12599681
14.268000,0.14354067
14.272000,0.13078150
14.276000,0.11642743
14.280000,0.11961722
14.284000,0.12599681
14.288000,0.13237640
14.292000,0.12599681
14.296000,0.12280702
14.300000,0.13078150
14.304000,0.14673046
14.308000,0.17065391
14.312000,0.16108453
14.316000,0.15151515
14.320000,0.16746411
14.324000,0.23604466
14.328000,0.33173844
14.332000,0.43540670
14.336000,0.50717703
14.340000,0.53110048
14.344000,0.51993620
14.348000,0.48803828
14.352000,0.43540670
14.356000,0.33333333
14.360000,0.20095694
14.364000,0.10207337
14.368000,0.06220096
14.372000,0.06220096
14.376000,0.08133971
14.380000,0.09090909
14.384000,0.06220096
14.388000,0.04465710
14.392000,0.03349282
14.396000,0.05422648
14.400000,0.05422648
14.404000,0.04625199
14.408000,0.00956938
14.412000,-0.03508772
14.416000,-0.05901116
14.420000,-0.02551834
14.424000,0.02232855
14.428000,0.03827751
14.432000,0.03349282
14.436000,0.03189793
14.440000,0.03030303
14.444000,-0.00318979
14.448000,-0.03827751
14.452000,-0.01754386
14.456000,0.01116427
14.460000,0.03349282
14.464000,0.06220096
14.468000,0.06858054
14.472000,0.04625199
14.476000,0.03827751
14.480000,0.03349282
14.484000,0.02073365
14.488000,0.00956938
14.492000,-0.00637959
14.496000,-0.02551834
14.500000,-0.03508772
14.504000,-0.04465710
14.508000,-0.06539075
14.512000,-0.08931419
14.516000,-0.11004785
14.520000,-0.13237640
14.524000,-0.14992026
14.528000,-0.16108453
14.532000,-0.16586922
14.536000,-0.18979266
14.540000,-0.20414673
14.544000,-0.22328549
14.548000,-0.24720893
14.552000,-0.26475279
14.556000,-0.26953748
14.560000,-0.26315789
14.564000,-0.23923445
14.568000,-0.20095694
14.572000,-0.18500797
14.576000,-0.23125997
14.580000,-0.30303030
14.584000,-0.31738437
14.588000,-0.29665072
14.592000,-0.26794258
14.596000,-0.24880383
14.600000,-0.25199362
14.604000,-0.26315789
14.608000,-0.24242424
14.612000,-0.23604466
14.616000,-0.25039872
14.620000,-0.25358852
14.624000,-0.20574163
14.628000,-0.17065391
14.632000,-0.18022329
14.636000,-0.19936204
14.640000,-0.20574163
14.644000,-0.20574163
14.648000,-0.21052632
14.652000,-0.20095694
14.656000,-0.16427432
14.660000,-0.09569378
14.664000,-0.06539075
14.668000,-0.09888357
14.672000,-0.16586922
14.676000,-0.21690590
14.680000,-0.24401914
14.684000,-0.22488038
14.688000,-0.19298246
14.692000,-0.19138756
14.696000,-0.22966507
14.700000,-0.25837321
14.704000,-0.25358852
14.708000,-0.23285486
14.712000,-0.21371611
14.716000,-0.23923445
14.720000,-0.28070175
14.724000,-0.30143541
14.728000,-0.28867624
14.732000,-0.26156300
14.736000,-0.24880383
14.740000,-0.26634769
14.744000,-0.29824561
14.748000,-0.34768740
14.752000,-0.37161085
14.756000,-0.37958533
14.760000,-0.37001595
14.764000,-0.36682616
14.768000,-0.37799043
14.772000,-0.40510367
14.776000,-0.42105263
14.780000,-0.42105263
14.784000,-0.40669856
14.788000,-0.39712919
14.792000,-0.40350877
14.796000,-0.38118022
14.800000,-0.33811802
14.804000,-0.31100478
14.808000,-0.32535885
14.812000,-0.36842105
14.816000,-0.37958533
14.820000,-0.34609250
14.824000,-0.27113238
14.828000,-0.23444976
14.832000,-0.26475279
14.836000,-0.34290271
14.840000,-0.38118022
14.844000,-0.36842105
14.848000,-0.34609250
14.852000,-0.34768740
14.856000,-0.36204147
14.860000,-0.38437002
14.864000,-0.39074960
14.868000,-0.38915470
14.872000,-0.43540670
14.876000,-0.50717703
14.880000,-0.54066986
14.884000,-0.53110048
14.888000,-0.49920255
14.892000,-0.48325359
14.896000,-0.47049442
14.900000,-0.41945774
14.904000,-0.29984051
14.908000,-0.09888357
14.912000,0.05103668
14.916000,0.05582137
14.920000,-0.08133971
14.924000,-0.28389155
14.928000,-0.46411483
14.932000,-0.55980861
14.936000,-0.57416268
14.940000,-0.53588517
14.944000,-0.49122807
14.948000,-0.45933014
14.952000,-0.44976077
14.956000,-0.42902711
14.960000,-0.39393939
14.964000,-0.35247209
14.968000,-0.33173844
14.972000,-0.32854864
14.976000,-0.34449761
14.980000,-0.32854864
14.984000,-0.31100478
14.988000,-0.28389155
14.992000,-0.24401914
14.996000,-0.23763955
15.000000,-0.29824561
15.004000,-0.35247209
15.008000,-0.35566188
15.012000,-0.34130781
15.016000,-0.34928230
15.020000,-0.36842105
15.024000,-0.37799043
15.028000,-0.37161085
15.032000,-0.34449761
15.036000,-0.31259968
15.040000,-0.33014354
15.044000,-0.36842105
15.048000,-0.38915470
15.052000,-0.37799043
15.056000,-0.35087719
15.060000,-0.32057416
15.064000,-0.31897927
15.068000,-0.36204147
15.072000,-0.42743222
15.076000,-0.47687400
15.080000,-0.51196172
15.084000,-0.51196172
15.088000,-0.50398724
15.092000,-0.51515152
15.096000,-0.50717703
15.100000,-0.46889952
15.104000,-0.44019139
15.108000,-0.44497608
15.112000,-0.48644338
15.116000,-0.52153110
15.120000,-0.53429027
15.124000,-0.51834131
15.128000,-0.46570973
15.132000,-0.40988836
15.136000,-0.37320574
15.140000,-0.35885167
15.144000,-0.36842105
15.148000,-0.38915470
15.152000,-0.38915470
15.156000,-0.38277512
15.160000,-0.37161085
15.164000,-0.33333333
15.168000,-0.30781499
15.172000,-0.34609250
15.176000,-0.40191388
15.180000,-0.41467305
15.184000,-0.38915470
15.188000,-0.39393939
15.192000,-0.40829346
15.196000,-0.40510367
15.200000,-0.40988836
15.204000,-0.42902711
15.208000,-0.41945774
15.212000,-0.37958533
15.216000,-0.33333333
15.220000,-0.34449761
15.224000,-0.40988836
15.228000,-0.45135566
15.232000,-0.44816587
15.236000,-0.44178628
15.240000,-0.45295056
15.244000,-0.46889952
15.248000,-0.48484848
15.252000,-0.47368421
15.256000,-0.45135566
15.260000,-0.40829346
15.264000,-0.36044657
15.268000,-0.38915470
15.272000,-0.47208931
15.276000,-0.50717703
15.280000,-0.49920255
15.284000,-0.46570973
15.288000,-0.47527911
15.292000,-0.51515152
15.296000,-0.54066986
15.300000,-0.55023923
15.304000,-0.56459330
15.308000,-0.56299841
15.312000,-0.55980861
15.316000,-0.57575758
15.320000,-0.58054226
15.324000,-0.58054226
15.328000,-0.56778309
15.332000,-0.56140351
15.336000,-0.54704944
15.340000,-0.56299841
15.344000,-0.55502392
15.348000,-0.54066986
15.352000,-0.54385965
15.356000,-0.56778309
15.360000,-0.58373206
15.364000,-0.55183413
15.368000,-0.48803828
15.372000,-0.45135566
15.376000,-0.44976077
15.380000,-0.44338118
15.384000,-0.41467305
15.388000,-0.38277512
15.392000,-0.37639553
15.396000,-0.39393939
15.400000,-0.42902711
15.404000,-0.44976077
15.408000,-0.42902711
15.412000,-0.40191388
15.416000,-0.40191388
15.420000,-0.41626794
15.424000,-0.42424242
15.428000,-0.40510367
15.432000,-0.36682616
15.436000,-0.30781499
15.440000,-0.22647528
15.444000,-0.18181818
15.448000,-0.17384370
15.452000,-0.13237640
15.456000,0.00000000
15.460000,0.12121212
15.464000,0.15789474
15.468000,0.14354067
15.472000,0.09728868
15.476000,0.02232855
15.480000,-0.09728868
15.484000,-0.26475279
15.488000,-0.40350877
15.492000,-0.43381180
15.496000,-0.40350877
15.500000,-0.39074960
15.504000,-0.41626794
15.508000,-0.45933014
15.512000,-0.50717703
15.516000,-0.53588517
15.520000,-0.52950558
15.524000,-0.49760766
15.528000,-0.46411483
15.532000,-0.45295056
15.536000,-0.50717703
15.540000,-0.55821372
15.544000,-0.57097289
15.548000,-0.55502392
15.552000,-0.54704944
15.556000,-0.54226475
15.560000,-0.53748006
15.564000,-0.52153110
15.568000,-0.51196172
15.572000,-0.50877193
15.576000,-0.52312600
15.580000,-0.53110048
15.584000,-0.48484848
15.588000,-0.40829346
15.592000,-0.38755981
15.596000,-0.43700159
15.600000,-0.50877193
15.604000,-0.54385965
15.608000,-0.52791069
15.612000,-0.50398724
15.616000,-0.49282297
15.620000,-0.49441786
15.624000,-0.47846890
15.628000,-0.47687400
15.632000,-0.45454545
15.636000,-0.43700159
15.640000,-0.46730463
15.644000,-0.48803828
15.648000,-0.48165869
15.652000,-0.42583732
15.656000,-0.38596491
15.660000,-0.40829346
15.664000,-0.45933014
15.668000,-0.44816587
15.672000,-0.39553429
15.676000,-0.37001595
15.680000,-0.37799043
15.684000,-0.41786284
15.688000,-0.46730463
15.692000,-0.50239234
15.696000,-0.46570973
15.700000,-0.37161085
15.704000,-0.30143541
15.708000,-0.30303030
15.712000,-0.35087719
15.716000,-0.39553429
15.720000,-0.41786284
15.724000,-0.39872408
15.728000,-0.35406699
15.732000,-0.31419458
15.736000,-0.30940989
15.740000,-0.34928230
15.744000,-0.37161085
15.748000,-0.38437002
15.752000,-0.36363636
15.756000,-0.28708134
15.760000,-0.23125997
15.764000,-0.25039872
15.768000,-0.32535885
15.772000,-0.37480064
15.776000,-0.36523126
15.780000,-0.32695375
15.784000,-0.29824561
15.788000,-0.30940989
15.792000,-0.32057416
15.796000,-0.30462520
15.800000,-0.25996810
15.804000,-0.23125997
15.808000,-0.18500797
15.812000,-0.13237640
15.816000,-0.13875598
15.820000,-0.21690590
15.824000,-0.28708134
15.828000,-0.25518341
15.832000,-0.16586922
15.836000,-0.12918660
15.840000,-0.17224880
15.844000,-0.22807018
15.848000,-0.25837321
15.852000,-0.27751196
15.856000,-0.25837321
15.860000,-0.18181818
15.864000,-0.13237640
15.868000,-0.16108453
15.872000,-0.25039872
15.876000,-0.29186603
15.880000,-0.24561404
15.884000,-0.10845295
15.888000,-0.01275917
15.892000,-0.02232855
15.896000,-0.13397129
15.900000,-0.24880383
15.904000,-0.29346093
15.908000,-0.23285486
15.912000,-0.10845295
15.916000,-0.00797448
15.920000,-0.03349282
15.924000,-0.13397129
15.928000,-0.19457735
15.932000,-0.18022329
15.936000,-0.14832536
15.940000,-0.14035088
15.944000,-0.11802233
15.948000,-0.10526316
15.952000,-0.13397129
15.956000,-0.17543860
15.960000,-0.18022329
15.964000,-0.14992026
15.968000,-0.11004785
15.972000,-0.07974482
15.976000,-0.06379585
15.980000,-0.08452951
15.984000,-0.12599681
15.988000,-0.18181818
15.992000,-0.19298246
15.996000,-0.16905901
16.000000,-0.08293461
16.004000,0.06220096
16.008000,0.19138756
16.012000,0.27432217
16.016000,0.35247209
16.020000,0.41626794
16.024000,0.42743222
16.028000,0.38277512
16.032000,0.29824561
16.036000,0.15789474
16.040000,-0.04625199
16.044000,-0.19457735
16.048000,-0.25358852
16.052000,-0.24720893
16.056000,-0.20255183
16.060000,-0.11483254
16.064000,-0.03508772
16.068000,-0.03349282
16.072000,-0.13716108
16.076000,-0.24082935
16.080000,-0.23444976
16.084000,-0.12440191
16.088000,-0.00318979
16.092000,0.03827751
16.096000,-0.02392344
16.100000,-0.13397129
16.104000,-0.23285486
16.108000,-0.25199362
16.112000,-0.18500797
16.116000,-0.10845295
16.120000,-0.05103668
16.124000,-0.04306220
16.128000,-0.01913876
16.132000,-0.01435407
16.136000,-0.04784689
16.140000,-0.11961722
16.144000,-0.15948963
16.148000,-0.16427432
16.152000,-0.11961722
16.156000,-0.07814992
16.160000,-0.06220096
16.164000,-0.08293461
16.168000,-0.11961722
16.172000,-0.16108453
16.176000,-0.19138756
16.180000,-0.19617225
16.184000,-0.14832536
16.188000,-0.08133971
16.192000,-0.02392344
16.196000,-0.04146730
16.200000,-0.11004785
16.204000,-0.18181818
16.208000,-0.18341308
16.212000,-0.15311005
16.216000,-0.14513557
16.220000,-0.18181818
16.224000,-0.23923445
16.228000,-0.24242424
16.232000,-0.20255183
16.236000,-0.14832536
16.240000,-0.11642743
16.244000,-0.11483254
16.248000,-0.11483254
16.252000,-0.08452951
16.256000,-0.04306220
16.260000,-0.03349282
16.264000,-0.09409888
16.268000,-0.17703349
16.272000,-0.18500797
16.276000,-0.13397129
16.280000,-0.05901116
16.284000,-0.00956938
16.288000,0.00159490
16.292000,-0.01275917
16.296000,-0.04146730
16.300000,-0.08452951
16.304000,-0.13875598
16.308000,-0.16108453
16.312000,-0.14035088
16.316000,-0.08452951
16.320000,-0.02073365
16.324000,0.03030303
16.328000,0.03189793
16.332000,-0.00159490
16.336000,-0.05582137
16.340000,-0.06698565
16.344000,-0.04146730
16.348000,-0.01913876
16.352000,0.01116427
16.356000,0.02711324
16.360000,0.03030303
16.364000,0.02870813
16.368000,0.03508772
16.372000,0.04784689
16.376000,0.06220096
16.380000,0.04944179
16.384000,0.01435407
16.388000,0.01116427
16.392000,0.07336523
16.396000,0.12599681
16.400000,0.14513557
16.404000,0.10685805
16.408000,0.07177033
16.412000,0.05422648
16.416000,0.07017544
16.420000,0.11004785
16.424000,0.14673046
16.428000,0.12280702
16.432000,0.04944179
16.436000,0.01116427
16.440000,0.00318979
16.444000,0.03189793
16.448000,0.05901116
16.452000,0.07974482
16.456000,0.08612440
16.460000,0.07177033
16.464000,0.06060606
16.468000,0.06060606
16.472000,0.06858054
16.476000,0.08452951
16.480000,0.08612440
16.484000,0.08771930
16.488000,0.09250399
16.492000,0.07177033
16.496000,0.04146730
16.500000,0.02073365
16.504000,0.03349282
16.508000,0.06379585
16.512000,0.08293461
16.516000,0.07496013
16.520000,0.08133971
16.524000,0.09728868
16.528000,0.11323764
16.532000,0.09888357
16.536000,0.07814992
16.540000,0.07177033
16.544000,0.07655502
16.548000,0.08133971
16.552000,0.09090909
16.556000,0.08133971
16.560000,0.06698565
16.564000,0.07655502
16.568000,0.12280702
16.572000,0.18819777
16.576000,0.27113238
16.580000,0.39712919
16.584000,0.52312600
16.588000,0.61244019
16.592000,0.66188198
16.596000,0.65390750
16.600000,0.59968102
16.604000,0.49122807
16.608000,0.33811802
16.612000,0.19138756
16.616000,0.11164274
16.620000,0.05901116
16.624000,0.02232855
16.628000,0.01754386
16.632000,0.03508772
16.636000,0.04944179
16.640000,0.04625199
16.644000,0.01913876
16.648000,0.00797448
16.652000,0.02073365
16.656000,0.03668262
16.660000,0.05263158
16.664000,0.02551834
16.668000,-0.00159490
16.672000,0.00318979
16.676000,0.05582137
16.680000,0.09888357
16.684000,0.09728868
16.688000,0.05741627
16.692000,0.03668262
16.696000,0.01913876
16.700000,0.00797448
16.704000,0.00956938
16.708000,0.02551834
16.712000,0.03668262
16.716000,0.05263158
16.720000,0.07177033
16.724000,0.06698565
16.728000,0.01435407
16.732000,-0.02232855
16.736000,-0.03189793
16.740000,-0.01594896
16.744000,0.02392344
16.748000,0.05103668
16.752000,0.05901116
16.756000,0.03987241
16.760000,0.00478469
16.764000,-0.03189793
16.768000,-0.04784689
16.772000,-0.04465710
16.776000,-0.02073365
16.780000,-0.00956938
16.784000,0.00000000
16.788000,-0.00159490
16.792000,-0.00637959
16.796000,-0.00318979
16.800000,0.00000000
16.804000,0.01754386
16.808000,0.03189793
16.812000,0.02551834
16.816000,0.00000000
16.820000,0.01594896
16.824000,0.03668262
16.828000,0.06539075
16.832000,0.05901116
16.836000,0.05582137
16.840000,0.05422648
16.844000,0.05103668
16.848000,0.05263158
16.852000,0.05422648
16.856000,0.05582137
16.860000,0.04944179
16.864000,0.07974482
16.868000,0.13397129
16.872000,0.17065391
16.876000,0.13556619
16.880000,0.06379585
16.884000,0.02711324
16.888000,0.04146730
16.892000,0.07814992
16.896000,0.09409888
16.900000,0.10047847
16.904000,0.09250399
16.908000,0.08771930
16.912000,0.08133971
16.916000,0.08133971
16.920000,0.10526316
16.924000,0.13237640
16.928000,0.14992026
16.932000,0.13078150
16.936000,0.11323764
16.940000,0.12121212
16.944000,0.16905901
16.948000,0.19138756
16.952000,0.18022329
16.956000,0.14354067
16.960000,0.11483254
16.964000,0.10685805
16.968000,0.09888357
16.972000,0.11323764
16.976000,0.11642743
16.980000,0.12599681
16.984000,0.13556619
16.988000,0.12918660
16.992000,0.13237640
16.996000,0.11642743
17.000000,0.11483254
17.004000,0.10526316
17.008000,0.09569378
17.012000,0.09250399
17.016000,0.08771930
17.020000,0.08771930
17.024000,0.07655502
17.028000,0.07017544
17.032000,0.07496013
17.036000,0.09090909
17.040000,0.09090909
17.044000,0.10047847
17.048000,0.08931419
17.052000,0.08612440
17.056000,0.08931419
17.060000,0.09888357
17.064000,0.12280702
17.068000,0.15311005
17.072000,0.15311005
17.076000,0.10685805
17.080000,0.04625199
17.084000,0.03508772
17.088000,0.06060606
17.092000,0.08612440
17.096000,0.07177033
17.100000,0.04306220
17.104000,0.03827751
17.108000,0.05263158
17.112000,0.06060606
17.116000,0.04784689
17.120000,0.02551834
17.124000,0.01594896
17.128000,0.02711324
17.132000,0.03827751
17.136000,0.06698565
17.140000,0.08293461
17.144000,0.10845295
17.148000,0.17224880
17.152000,0.24561404
17.156000,0.33333333
17.160000,0.42105263
17.164000,0.49282297
17.168000,0.55661882
17.172000,0.57416268
17.176000,0.52153110
17.180000,0.38277512
17.184000,0.19457735
17.188000,0.02711324
17.192000,-0.03827751
17.196000,-0.03030303
17.200000,0.02711324
17.204000,0.08293461
17.208000,0.11004785
17.212000,0.09728868
17.216000,0.06220096
17.220000,0.05741627
17.224000,0.06858054
17.228000,0.07336523
17.232000,0.08931419
17.236000,0.09569378
17.240000,0.09090909
17.244000,0.08771930
17.248000,0.09888357
17.252000,0.09409888
17.256000,0.06379585
17.260000,0.02392344
17.264000,0.00956938
17.268000,0.03189793
17.272000,0.04306220
17.276000,0.01754386
17.280000,-0.00637959
17.284000,-0.00797448
17.288000,-0.00318979
17.292000,0.00000000
17.296000,-0.01594896
17.300000,-0.02232855
17.304000,-0.03349282
17.308000,-0.02870813
17.312000,-0.02551834
17.316000,-0.01754386
17.320000,-0.01116427
17.324000,-0.00318979
17.328000,-0.00478469
17.332000,-0.00637959
17.336000,0.00159490
17.340000,0.03030303
17.344000,0.04944179
17.348000,0.03349282
17.352000,0.00318979
17.356000,-0.00478469
17.360000,0.01594896
17.364000,0.02711324
17.368000,0.00478469
17.372000,-0.03827751
17.376000,-0.05103668
17.380000,-0.04306220
17.384000,-0.00956938
17.388000,0.00000000
17.392000,-0.01275917
17.396000,-0.01435407
17.400000,0.00956938
17.404000,0.02870813
17.408000,0.04784689
17.412000,0.05103668
17.416000,0.05263158
17.420000,0.06698565
17.424000,0.08931419
17.428000,0.11323764
17.432000,0.11802233
17.436000,0.09569378
17.440000,0.06698565
17.444000,0.04944179
17.448000,0.03668262
17.452000,0.07017544
17.456000,0.11004785
17.460000,0.18500797
17.464000,0.23604466
17.468000,0.22009569
17.472000,0.12918660
17.476000,0.04306220
17.480000,0.01435407
17.484000,0.04784689
17.488000,0.11004785
17.492000,0.15311005
17.496000,0.15629984
17.500000,0.11323764
17.504000,0.08771930
17.508000,0.08133971
17.512000,0.11004785
17.516000,0.15789474
17.520000,0.19138756
17.524000,0.15948963
17.528000,0.12121212
17.532000,0.09090909
17.536000,0.09569378
17.540000,0.10526316
17.544000,0.14513557
17.548000,0.17224880
17.552000,0.20574163
17.556000,0.22009569
17.560000,0.22169059
17.564000,0.22169059
17.568000,0.20574163
17.572000,0.19298246
17.576000,0.18181818
17.580000,0.18022329
17.584000,0.17862839
17.588000,0.17384370
17.592000,0.17703349
17.596000,0.16586922
17.600000,0.16905901
17.604000,0.18660287
17.608000,0.22807018
17.612000,0.24401914
17.616000,0.22169059
17.620000,0.16427432
17.624000,0.09728868
17.628000,0.06379585
17.632000,0.08931419
17.636000,0.14673046
17.640000,0.18660287
17.644000,0.18819777
17.648000,0.16905901
17.652000,0.17543860
17.656000,0.18979266
17.660000,0.18660287
17.664000,0.17224880
17.668000,0.18660287
17.672000,0.20095694
17.676000,0.19138756
17.680000,0.17862839
17.684000,0.18181818
17.688000,0.19936204
17.692000,0.21531100
17.696000,0.23125997
17.700000,0.24242424
17.704000,0.26156300
17.708000,0.27432217
17.712000,0.26634769
17.716000,0.21531100
17.720000,0.19138756
17.724000,0.24561404
17.728000,0.37161085
17.732000,0.50239234
17.736000,0.56618820
17.740000,0.58532695
17.744000,0.62838915
17.748000,0.66347687
17.752000,0.67145136
17.756000,0.60765550
17.760000,0.48803828
17.764000,0.33652313
17.768000,0.20733652
17.772000,0.15151515
17.776000,0.16427432
17.780000,0.21690590
17.784000,0.25518341
17.788000,0.22966507
17.792000,0.14992026
17.796000,0.08612440
17.800000,0.08133971
17.804000,0.12440191
17.808000,0.17224880
17.812000,0.21531100
17.816000,0.24880383
17.820000,0.25358852
17.824000,0.23923445
17.828000,0.23125997
17.832000,0.25837321
17.836000,0.23604466
17.840000,0.19936204
17.844000,0.19298246
17.848000,0.23444976
17.852000,0.27432217
17.856000,0.30622010
17.860000,0.31100478
17.864000,0.31419458
17.868000,0.30781499
17.872000,0.31100478
17.876000,0.33014354
17.880000,0.34130781
17.884000,0.37639553
17.888000,0.41148325
17.892000,0.44178628
17.896000,0.43859649
17.900000,0.41467305
17.904000,0.38915470
17.908000,0.39393939
17.912000,0.41945774
17.916000,0.46570973
17.920000,0.50079745
17.924000,0.49122807
17.928000,0.43859649
17.932000,0.38437002
17.936000,0.37001595
17.940000,0.40669856
17.944000,0.44338118
17.948000,0.46730463
17.952000,0.46570973
17.956000,0.44976077
17.960000,0.40829346
17.964000,0.35885167
17.968000,0.33971292
17.972000,0.35725678
17.976000,0.39074960
17.980000,0.40191388
17.984000,0.38437002
17.988000,0.37639553
17.992000,0.37480064
17.996000,0.37958533
18.000000,0.39393939
18.004000,0.40988836
18.008000,0.40669856
18.012000,0.39553429
18.016000,0.36842105
18.020000,0.32695375
18.024000,0.29665072
18.028000,0.25996810
18.032000,0.25199362
18.036000,0.24720893
18.040000,0.25677831
18.044000,0.28389155
18.048000,0.29984051
18.052000,0.30303030
18.056000,0.27910686
18.060000,0.23763955
18.064000,0.17384370
18.068000,0.15470494
18.072000,0.18819777
18.076000,0.23444976
18.080000,0.23285486
18.084000,0.22169059
18.088000,0.21850080
18.092000,0.21690590
18.096000,0.21212121
18.100000,0.21371611
18.104000,0.22009569
18.108000,0.25199362
18.112000,0.27910686
18.116000,0.28708134
18.120000,0.28229665
18.124000,0.26315789
18.128000,0.23604466
18.132000,0.21531100
18.136000,0.19617225
18.140000,0.18819777
18.144000,0.19457735
18.148000,0.22647528
18.152000,0.23923445
18.156000,0.24720893
18.160000,0.24720893
18.164000,0.23125997
18.168000,0.19936204
18.172000,0.19617225
18.176000,0.20574163
18.180000,0.22009569
18.184000,0.21690590
18.188000,0.22488038
18.192000,0.22647528
18.196000,0.22009569
18.200000,0.20095694
18.204000,0.17224880
18.208000,0.14992026
18.212000,0.14513557
18.216000,0.16108453
18.220000,0.16586922
18.224000,0.14832536
18.228000,0.16746411
18.232000,0.21052632
18.236000,0.21850080
18.240000,0.17543860
18.244000,0.11323764
18.248000,0.09409888
18.252000,0.12121212
18.256000,0.15470494
18.260000,0.16267943
18.264000,0.15948963
18.268000,0.14354067
18.272000,0.13237640
18.276000,0.13237640
18.280000,0.13556619
18.284000,0.13875598
18.288000,0.13237640
18.292000,0.12759171
18.296000,0.14354067
18.300000,0.18819777
18.304000,0.24082935
18.308000,0.30143541
18.312000,0.34130781
18.316000,0.37480064
18.320000,0.42583732
18.324000,0.49441786
18.328000,0.51674641
18.332000,0.45933014
18.336000,0.31897927
18.340000,0.16267943
18.344000,0.06698565
18.348000,0.04146730
18.352000,0.10207337
18.356000,0.12599681
18.360000,0.10845295
18.364000,0.05422648
18.368000,0.04944179
18.372000,0.11164274
18.376000,0.21052632
18.380000,0.30303030
18.384000,0.30940989
18.388000,0.19617225
18.392000,0.05582137
18.396000,-0.04944179
18.400000,-0.06220096
18.404000,-0.00478469
18.408000,0.08612440
18.412000,0.15789474
18.416000,0.16905901
18.420000,0.13716108
18.424000,0.07496013
18.428000,0.02232855
18.432000,0.03508772
18.436000,0.07814992
18.440000,0.11164274
18.444000,0.11164274
18.448000,0.05582137
18.452000,0.00797448
18.456000,0.01594896
18.460000,0.03987241
18.464000,0.03987241
18.468000,0.01435407
18.472000,0.02870813
18.476000,0.05422648
18.480000,0.04784689
18.484000,0.04306220
18.488000,0.07017544
18.492000,0.14673046
18.496000,0.16586922
18.500000,0.08771930
18.504000,0.02232855
18.508000,0.01275917
18.512000,0.03189793
18.516000,0.07496013
18.520000,0.09728868
18.524000,0.08612440
18.528000,0.07496013
18.532000,0.08931419
18.536000,0.11004785
18.540000,0.12759171
18.544000,0.14992026
18.548000,0.16586922
18.552000,0.18660287
18.556000,0.19617225
18.560000,0.20574163
18.564000,0.21371611
18.568000,0.21850080
18.572000,0.17224880
18.576000,0.13556619
18.580000,0.10526316
18.584000,0.11802233
18.588000,0.11642743
18.592000,0.09888357
18.596000,0.08612440
18.600000,0.07974482
18.604000,0.08612440
18.608000,0.09250399
18.612000,0.09090909
18.616000,0.08771930
18.620000,0.07974482
18.624000,0.07177033
18.628000,0.06539075
18.632000,0.06858054
18.636000,0.07814992
18.640000,0.08612440
18.644000,0.09250399
18.648000,0.09250399
18.652000,0.08931419
18.656000,0.09569378
18.660000,0.11004785
18.664000,0.12918660
18.668000,0.14354067
18.672000,0.15629984
18.676000,0.18660287
18.680000,0.23763955
18.684000,0.29027113
18.688000,0.31419458
18.692000,0.27751196
18.696000,0.21371611
18.700000,0.20733652
18.704000,0.26475279
18.708000,0.34130781
18.712000,0.38755981
18.716000,0.34609250
18.720000,0.20574163
18.724000,0.07496013
18.728000,0.03349282
18.732000,0.05741627
18.736000,0.10685805
18.740000,0.15470494
18.744000,0.18819777
18.748000,0.21212121
18.752000,0.21212121
18.756000,0.21531100
18.760000,0.21850080
18.764000,0.22009569
18.768000,0.23125997
18.772000,0.24242424
18.776000,0.24561404
18.780000,0.25199362
18.784000,0.26794258
18.788000,0.27591707
18.792000,0.29346093
18.796000,0.30781499
18.800000,0.31578947
18.804000,0.32216906
18.808000,0.32376396
18.812000,0.33811802
18.816000,0.35087719
18.820000,0.37958533
18.824000,0.41945774
18.828000,0.47527911
18.832000,0.51196172
18.836000,0.47368421
18.840000,0.40829346
18.844000,0.38596491
18.848000,0.38755981
18.852000,0.39872408
18.856000,0.40191388
18.860000,0.42264753
18.864000,0.42902711
18.868000,0.43700159
18.872000,0.44497608
18.876000,0.44816587
18.880000,0.42902711
18.884000,0.40510367
18.888000,0.42424242
18.892000,0.46570973
18.896000,0.52153110
18.900000,0.57416268
18.904000,0.60606061
18.908000,0.59808612
18.912000,0.52631579
18.916000,0.38118022
18.920000,0.19776715
18.924000,-0.00637959
18.928000,-0.13716108
18.932000,-0.20095694
18.936000,-0.23125997
18.940000,-0.26475279
18.944000,-0.33811802
18.948000,-0.43221691
18.952000,-0.50717703
18.956000,-0.55502392
18.960000,-0.54545455
18.964000,-0.51515152
18.968000,-0.48484848
18.972000,-0.48165869
18.976000,-0.48803828
18.980000,-0.47368421
18.984000,-0.42583732
18.988000,-0.37320574
18.992000,-0.33811802
18.996000,-0.29186603
19.000000,-0.23444976
19.004000,-0.14194577
19.008000,-0.01275917
19.012000,0.16905901
19.016000,0.35247209
19.020000,0.50558214
19.024000,0.58692185
19.028000,0.57575758
19.032000,0.49601276
19.036000,0.40829346
19.040000,0.33173844
19.044000,0.28229665
19.048000,0.23285486
19.052000,0.18660287
19.056000,0.14194577
19.060000,0.09888357
19.064000,0.03189793
19.068000,-0.06539075
19.072000,-0.16267943
19.076000,-0.22647528
19.080000,-0.26315789
19.084000,-0.28867624
19.088000,-0.30622010
19.092000,-0.33173844
19.096000,-0.38596491
19.100000,-0.43540670
19.104000,-0.46570973
19.108000,-0.46251994
19.112000,-0.47368421
19.116000,-0.48006380
19.120000,-0.49441786
19.124000,-0.50717703
19.128000,-0.51834131
19.132000,-0.54226475
19.136000,-0.56778309
19.140000,-0.59968102
19.144000,-0.62041467
19.148000,-0.64274322
19.152000,-0.66028708
19.156000,-0.66347687
19.160000,-0.66347687
19.164000,-0.64752791
19.168000,-0.64433812
19.172000,-0.64593301
19.176000,-0.65390750
19.180000,-0.66666667
19.184000,-0.67145136
19.188000,-0.67464115
19.192000,-0.68261563
19.196000,-0.67623604
19.200000,-0.66826156
19.204000,-0.65390750
19.208000,-0.66188198
19.212000,-0.67942584
19.216000,-0.66826156
19.220000,-0.63476874
19.224000,-0.59011164
19.228000,-0.60606061
19.232000,-0.63795853
19.236000,-0.65709729
19.240000,-0.65071770
19.244000,-0.62200957
19.248000,-0.59489633
19.252000,-0.57575758
19.256000,-0.55821372
19.260000,-0.54066986
19.264000,-0.52153110
19.268000,-0.50398724
19.272000,-0.48325359
19.276000,-0.45773525
19.280000,-0.42583732
19.284000,-0.38596491
19.288000,-0.35566188
19.292000,-0.32376396
19.296000,-0.29027113
19.300000,-0.27432217
19.304000,-0.26475279
19.308000,-0.26634769
19.312000,-0.26794258
19.316000,-0.27751196
19.320000,-0.27751196
19.324000,-0.25996810
19.328000,-0.23763955
19.332000,-0.21052632
19.336000,-0.18341308
19.340000,-0.13716108
19.344000,-0.05901116
19.348000,-0.04944179
19.352000,-0.13078150
19.356000,-0.25199362
19.360000,-0.30303030
19.364000,-0.26315789
19.368000,-0.18341308
19.372000,-0.12599681
19.376000,-0.11164274
19.380000,-0.15629984
19.384000,-0.18341308
19.388000,-0.18181818
19.392000,-0.14035088
19.396000,-0.08612440
19.400000,-0.07655502
19.404000,-0.12599681
19.408000,-0.19138756
19.412000,-0.22966507
19.416000,-0.22328549
19.420000,-0.19936204
19.424000,-0.18181818
19.428000,-0.18181818
19.432000,-0.19457735
19.436000,-0.19457735
19.440000,-0.19617225
19.444000,-0.19138756
19.448000,-0.19298246
19.452000,-0.19457735
19.456000,-0.18500797
19.460000,-0.16267943
19.464000,-0.12599681
19.468000,-0.05901116
19.472000,0.03508772
19.476000,0.14513557
19.480000,0.24242424
19.484000,0.31897927
19.488000,0.34290271
19.492000,0.30143541
19.496000,0.20255183
19.500000,0.07974482
19.504000,-0.00318979
19.508000,0.00318979
19.512000,0.05582137
19.516000,0.01913876
19.520000,-0.07017544
19.524000,-0.10047847
19.528000,-0.04784689
19.532000,0.03030303
19.536000,0.08293461
19.540000,0.10047847
19.544000,0.10845295
19.548000,0.10685805
19.552000,0.11164274
19.556000,0.11164274
19.560000,0.11961722
19.564000,0.13716108
19.568000,0.15311005
19.572000,0.16746411
19.576000,0.18500797
19.580000,0.20414673
19.584000,0.21850080
19.588000,0.23444976
19.592000,0.25518341
19.596000,0.27272727
19.600000,0.28070175
19.604000,0.29665072
19.608000,0.29984051
19.612000,0.28229665
19.616000,0.26634769
19.620000,0.25358852
19.624000,0.22488038
19.628000,0.20893142
19.632000,0.20893142
19.636000,0.21850080
19.640000,0.23763955
19.644000,0.22488038
19.648000,0.18979266
19.652000,0.15789474
19.656000,0.14513557
19.660000,0.16746411
19.664000,0.21052632
19.668000,0.25518341
19.672000,0.31259968
19.676000,0.33492823
19.680000,0.32695375
19.684000,0.30622010
19.688000,0.26953748
19.692000,0.24401914
19.696000,0.22647528
19.700000,0.21690590
19.704000,0.19936204
19.708000,0.17065391
19.712000,0.14513557
19.716000,0.11961722
19.720000,0.10366826
19.724000,0.08133971
19.728000,0.06539075
19.732000,0.05263158
19.736000,0.04146730
19.740000,0.02870813
19.744000,0.01275917
19.748000,-0.00318979
19.752000,-0.01275917
19.756000,-0.03827751
19.760000,-0.10845295
19.764000,-0.17703349
19.768000,-0.23125997
19.772000,-0.22807018
19.776000,-0.22009569
19.780000,-0.22328549
19.784000,-0.24561404
19.788000,-0.30462520
19.792000,-0.34449761
19.796000,-0.37001595
19.800000,-0.37480064
19.804000,-0.38596491
19.808000,-0.39553429
19.812000,-0.40350877
19.816000,-0.42264753
19.820000,-0.43221691
19.824000,-0.44019139
19.828000,-0.43221691
19.832000,-0.42264753
19.836000,-0.41467305
19.840000,-0.41148325
19.844000,-0.40669856
19.848000,-0.39872408
19.852000,-0.38915470
19.856000,-0.38596491
19.860000,-0.37639553
19.864000,-0.36044657
19.868000,-0.32854864
19.872000,-0.30622010
19.876000,-0.27272727
19.880000,-0.27910686
19.884000,-0.32216906
19.888000,-0.39553429
19.892000,-0.44497608
19.896000,-0.44657097
19.900000,-0.43700159
19.904000,-0.43062201
19.908000,-0.44019139
19.912000,-0.44497608
19.916000,-0.46411483
19.920000,-0.49601276
19.924000,-0.52312600
19.928000,-0.53748006
19.932000,-0.53748006
19.936000,-0.54066986
19.940000,-0.53588517
19.944000,-0.54066986
19.948000,-0.54704944
19.952000,-0.55183413
19.956000,-0.54066986
19.960000,-0.53429027
19.964000,-0.52472089
19.968000,-0.51196172
19.972000,-0.50558214
19.976000,-0.50079745
19.980000,-0.49282297
19.984000,-0.47846890
19.988000,-0.46251994
19.992000,-0.44976077
19.996000,-0.42583732
20.000000,-0.41148325
20.004000,-0.39553429
20.008000,-0.37799043
20.012000,-0.37639553
20.016000,-0.37958533
20.020000,-0.37958533
20.024000,-0.39234450
20.028000,-0.40829346
20.032000,-0.40350877
20.036000,-0.38118022
20.040000,-0.36044657
20.044000,-0.34609250
20.048000,-0.33811802
20.052000,-0.29984051
20.056000,-0.21850080
20.060000,-0.11164274
20.064000,-0.00478469
20.068000,0.07017544
20.072000,0.11004785
20.076000,0.06858054
20.080000,-0.03987241
20.084000,-0.17224880
20.088000,-0.31259968
20.092000,-0.40829346
20.096000,-0.43381180
20.100000,-0.41626794
20.104000,-0.40350877
20.108000,-0.39553429
20.112000,-0.40031898
20.116000,-0.40829346
20.120000,-0.41786284
20.124000,-0.42743222
20.128000,-0.43221691
20.132000,-0.43062201
20.136000,-0.44178628
20.140000,-0.45135566
20.144000,-0.45135566
20.148000,-0.46411483
20.152000,-0.48963317
20.156000,-0.52950558
20.160000,-0.56140351
20.164000,-0.56937799
20.168000,-0.57416268
20.172000,-0.57416268
20.176000,-0.58054226
20.180000,-0.59968102
20.184000,-0.60606061
20.188000,-0.60287081
20.192000,-0.60287081
20.196000,-0.59011164
20.200000,-0.57575758
20.204000,-0.56618820
20.208000,-0.56618820
20.212000,-0.55980861
20.216000,-0.56618820
20.220000,-0.56459330
20.224000,-0.56618820
20.228000,-0.55502392
20.232000,-0.54385965
20.236000,-0.53429027
20.240000,-0.51993620
20.244000,-0.51036683
20.248000,-0.50398724
20.252000,-0.48803828
20.256000,-0.48165869
20.260000,-0.47208931
20.264000,-0.46251994
20.268000,-0.45933014
20.272000,-0.47049442
20.276000,-0.46570973
20.280000,-0.46092504
20.284000,-0.45135566
20.288000,-0.44497608
20.292000,-0.43859649
20.296000,-0.42902711
20.300000,-0.42264753
20.304000,-0.41786284
20.308000,-0.40191388
20.312000,-0.39712919
20.316000,-0.39234450
20.320000,-0.38277512
20.324000,-0.37639553
20.328000,-0.36523126
20.332000,-0.35566188
20.336000,-0.34928230
20.340000,-0.34609250
20.344000,-0.33971292
20.348000,-0.33652313
20.352000,-0.34130781
20.356000,-0.34449761
20.360000,-0.34130781
20.364000,-0.33173844
20.368000,-0.33014354
20.372000,-0.32216906
20.376000,-0.31259968
20.380000,-0.31578947
20.384000,-0.32057416
20.388000,-0.31259968
20.392000,-0.31259968
20.396000,-0.30303030
20.400000,-0.28548644
20.404000,-0.27751196
20.408000,-0.25837321
20.412000,-0.25996810
20.416000,-0.25518341
20.420000,-0.25837321
20.424000,-0.25518341
20.428000,-0.24720893
20.432000,-0.23604466
20.436000,-0.22328549
20.440000,-0.22488038
20.444000,-0.22488038
20.448000,-0.22807018
20.452000,-0.22966507
20.456000,-0.22807018
20.460000,-0.22328549
20.464000,-0.22328549
20.468000,-0.22328549
20.472000,-0.22647528
20.476000,-0.22647528
20.480000,-0.24242424
20.484000,-0.24880383
20.488000,-0.25039872
20.492000,-0.25358852
20.496000,-0.25677831
20.500000,-0.24401914
20.504000,-0.24082935
20.508000,-0.23923445
20.512000,-0.23604466
20.516000,-0.23763955
20.520000,-0.23444976
20.524000,-0.21531100
20.528000,-0.19776715
20.532000,-0.19298246
20.536000,-0.18341308
20.540000,-0.18341308
20.544000,-0.17862839
20.548000,-0.18341308
20.552000,-0.18500797
20.556000,-0.19298246
20.560000,-0.20255183
20.564000,-0.21371611
20.568000,-0.21052632
20.572000,-0.20414673
20.576000,-0.19138756
20.580000,-0.18181818
20.584000,-0.16586922
20.588000,-0.14673046
20.592000,-0.12280702
20.596000,-0.11802233
20.600000,-0.12440191
20.604000,-0.13716108
20.608000,-0.12759171
20.612000,-0.07974482
20.616000,0.01435407
20.620000,0.04625199
20.624000,0.00318979
20.628000,-0.10047847
20.632000,-0.16905901
20.636000,-0.17065391
20.640000,-0.10366826
20.644000,-0.00637959
20.648000,0.08133971
20.652000,0.18022329
20.656000,0.24082935
20.660000,0.25996810
20.664000,0.23923445
20.668000,0.15311005
20.672000,0.03668262
20.676000,-0.09250399
20.680000,-0.18660287
20.684000,-0.21052632
20.688000,-0.19298246
20.692000,-0.15311005
20.696000,-0.13556619
20.700000,-0.13556619
20.704000,-0.15151515
20.708000,-0.16427432
20.712000,-0.18819777
20.716000,-0.20733652
20.720000,-0.22328549
20.724000,-0.23285486
20.728000,-0.25199362
20.732000,-0.26794258
20.736000,-0.28070175
20.740000,-0.30303030
20.744000,-0.31897927
20.748000,-0.33971292
20.752000,-0.34928230
20.756000,-0.36363636
20.760000,-0.37161085
20.764000,-0.37958533
20.768000,-0.38915470
20.772000,-0.39872408
20.776000,-0.40510367
20.780000,-0.41467305
20.784000,-0.42264753
20.788000,-0.44178628
20.792000,-0.43540670
20.796000,-0.44497608
20.800000,-0.44816587
20.804000,-0.44338118
20.808000,-0.44657097
20.812000,-0.45773525
20.816000,-0.45773525
20.820000,-0.46570973
20.824000,-0.46251994
20.828000,-0.44976077
20.832000,-0.44338118
20.836000,-0.44178628
20.840000,-0.43859649
20.844000,-0.43381180
20.848000,-0.43859649
20.852000,-0.43381180
20.856000,-0.41626794
20.860000,-0.40829346
20.864000,-0.38437002
20.868000,-0.37161085
20.872000,-0.35885167
20.876000,-0.34290271
20.880000,-0.33173844
20.884000,-0.31578947
20.888000,-0.30303030
20.892000,-0.28229665
20.896000,-0.27272727
20.900000,-0.26794258
20.904000,-0.25518341
20.908000,-0.24880383
20.912000,-0.25358852
20.916000,-0.25518341
20.920000,-0.25358852
20.924000,-0.26156300
20.928000,-0.25039872
20.932000,-0.23763955
20.936000,-0.22966507
20.940000,-0.20574163
20.944000,-0.20733652
20.948000,-0.22009569
20.952000,-0.23444976
20.956000,-0.23125997
20.960000,-0.20255183
20.964000,-0.15948963
20.968000,-0.09090909
20.972000,-0.03508772
20.976000,-0.00318979
20.980000,-0.00478469
20.984000,-0.02392344
20.988000,-0.05582137
20.992000,-0.09090909
20.996000,-0.10685805
21.000000,-0.10845295
21.004000,-0.10845295
21.008000,-0.10526316
21.012000,-0.09569378
21.016000,-0.09090909
21.020000,-0.08931419
21.024000,-0.06858054
21.028000,-0.04944179
21.032000,-0.02870813
21.036000,-0.00797448
21.040000,0.00478469
21.044000,0.02392344
21.048000,0.03987241
21.052000,0.04784689
21.056000,0.05263158
21.060000,0.05901116
21.064000,0.06220096
21.068000,0.07336523
21.072000,0.07017544
21.076000,0.08293461
21.080000,0.07655502
21.084000,0.05103668
21.088000,0.02392344
21.092000,-0.00956938
21.096000,-0.03189793
21.100000,-0.05103668
21.104000,-0.06698565
21.108000,-0.08452951
21.112000,-0.09409888
21.116000,-0.11642743
21.120000,-0.14194577
21.124000,-0.16586922
21.128000,-0.17384370
21.132000,-0.18660287
21.136000,-0.19457735
21.140000,-0.19936204
21.144000,-0.20893142
21.148000,-0.21850080
21.152000,-0.22807018
21.156000,-0.22807018
21.160000,-0.22328549
21.164000,-0.21690590
21.168000,-0.21052632
21.172000,-0.20414673
21.176000,-0.21690590
21.180000,-0.21052632
21.184000,-0.21371611
21.188000,-0.22488038
21.192000,-0.21690590
21.196000,-0.22488038
21.200000,-0.22009569
21.204000,-0.21052632
21.208000,-0.19617225
21.212000,-0.16267943
21.216000,-0.10526316
21.220000,-0.02392344
21.224000,0.11004785
21.228000,0.28708134
21.232000,0.44178628
21.236000,0.51036683
21.240000,0.45295056
21.244000,0.31259968
21.248000,0.15629984
21.252000,0.00797448
21.256000,-0.10207337
21.260000,-0.14354067
21.264000,-0.12759171
21.268000,-0.09250399
21.272000,-0.06698565
21.276000,-0.05103668
21.280000,-0.06060606
21.284000,-0.07655502
21.288000,-0.09250399
21.292000,-0.10207337
21.296000,-0.09888357
21.300000,-0.08931419
21.304000,-0.08133971
21.308000,-0.07974482
21.312000,-0.07496013
21.316000,-0.06858054
21.320000,-0.09728868
21.324000,-0.13397129
21.328000,-0.14513557
21.332000,-0.15629984
21.336000,-0.16905901
21.340000,-0.17065391
21.344000,-0.13716108
21.348000,-0.07655502
21.352000,-0.03030303
21.356000,-0.01754386
21.360000,-0.05741627
21.364000,-0.10685805
21.368000,-0.10047847
21.372000,-0.05582137
21.376000,0.01913876
21.380000,0.08931419
21.384000,0.13397129
21.388000,0.12599681
21.392000,0.11323764
21.396000,0.10526316
21.400000,0.13397129
21.404000,0.18500797
21.408000,0.22328549
21.412000,0.26953748
21.416000,0.27910686
21.420000,0.27432217
21.424000,0.24242424
21.428000,0.22328549
21.432000,0.23923445
21.436000,0.30143541
21.440000,0.38437002
21.444000,0.45454545
21.448000,0.47049442
21.452000,0.41786284
21.456000,0.30143541
21.460000,0.16427432
21.464000,0.08771930
21.468000,0.11004785
21.472000,0.20893142
21.476000,0.29027113
21.480000,0.28867624
21.484000,0.22488038
21.488000,0.17384370
21.492000,0.17065391
21.496000,0.19936204
21.500000,0.23604466
21.504000,0.27272727
21.508000,0.31259968
21.512000,0.31738437
21.516000,0.26156300
21.520000,0.18341308
21.524000,0.13556619
21.528000,0.12280702
21.532000,0.18181818
21.536000,0.27432217
21.540000,0.35725678
21.544000,0.37639553
21.548000,0.34130781
21.552000,0.32057416
21.556000,0.33811802
21.560000,0.40191388
21.564000,0.48165869
21.568000,0.55661882
21.572000,0.52791069
21.576000,0.41786284
21.580000,0.31738437
21.584000,0.30622010
21.588000,0.36842105
21.592000,0.43859649
21.596000,0.49441786
21.600000,0.51036683
21.604000,0.48325359
21.608000,0.44338118
21.612000,0.42743222
21.616000,0.44019139
21.620000,0.45614035
21.624000,0.47846890
21.628000,0.51355662
21.632000,0.54066986
21.636000,0.52950558
21.640000,0.47687400
21.644000,0.42902711
21.648000,0.39393939
21.652000,0.39234450
21.656000,0.40350877
21.660000,0.38596491
21.664000,0.35725678
21.668000,0.33811802
21.672000,0.31897927
21.676000,0.31897927
