time,amplitude,sr,250.0
0.000000,-0.04926108
0.004000,-0.03694581
0.008000,-0.03201970
0.012000,-0.03448276
0.016000,-0.02955665
0.020000,-0.03201970
0.024000,-0.02709360
0.028000,-0.03694581
0.032000,-0.04926108
0.036000,-0.04433498
0.040000,-0.03694581
0.044000,-0.02463054
0.048000,-0.02216749
0.052000,-0.00738916
0.056000,-0.01724138
0.060000,-0.01231527
0.064000,-0.01970443
0.068000,-0.01477833
0.072000,-0.00492611
0.076000,0.01724138
0.080000,0.05665025
0.084000,0.12561576
0.088000,0.21674877
0.092000,0.32266010
0.096000,0.36699507
0.100000,0.37684729
0.104000,0.41871921
0.108000,0.46798030
0.112000,0.48768473
0.116000,0.38669951
0.120000,0.16256158
0.124000,-0.10098522
0.128000,-0.26847291
0.132000,-0.30541872
0.136000,-0.23399015
0.140000,-0.15763547
0.144000,-0.09852217
0.148000,-0.06650246
0.152000,-0.06650246
0.156000,-0.06650246
0.160000,-0.06650246
0.164000,-0.08620690
0.168000,-0.08866995
0.172000,-0.08374384
0.176000,-0.09113300
0.180000,-0.07881773
0.184000,-0.06157635
0.188000,-0.07389163
0.192000,-0.07635468
0.196000,-0.08374384
0.200000,-0.08620690
0.204000,-0.08620690
0.208000,-0.08128079
0.212000,-0.07389163
0.216000,-0.07142857
0.220000,-0.06896552
0.224000,-0.07881773
0.228000,-0.09113300
0.232000,-0.08866995
0.236000,-0.09113300
0.240000,-0.08128079
0.244000,-0.08128079
0.248000,-0.06896552
0.252000,-0.06650246
0.256000,-0.06403941
0.260000,-0.06896552
0.264000,-0.06896552
0.268000,-0.07142857
0.272000,-0.07635468
0.276000,-0.05418719
0.280000,-0.05665025
0.284000,-0.04926108
0.288000,-0.05418719
0.292000,-0.05418719
0.296000,-0.04433498
0.300000,-0.04926108
0.304000,-0.04433498
0.308000,-0.03448276
0.312000,-0.03940887
0.316000,-0.01970443
0.320000,-0.01477833
0.324000,-0.01970443
0.328000,-0.01724138
0.332000,-0.02463054
0.336000,-0.01724138
0.340000,-0.00985222
0.344000,-0.00492611
0.348000,0.00000000
0.352000,0.00492611
0.356000,0.00246305
0.360000,-0.00492611
0.364000,-0.00738916
0.368000,-0.01970443
0.372000,-0.01970443
0.376000,-0.01724138
0.380000,-0.01231527
0.384000,-0.00985222
0.388000,-0.00985222
0.392000,-0.02216749
0.396000,-0.02955665
0.400000,-0.01970443
0.404000,-0.03448276
0.408000,-0.01477833
0.412000,-0.00738916
0.416000,-0.01231527
0.420000,-0.00492611
0.424000,-0.00246305
0.428000,-0.00492611
0.432000,0.00492611
0.436000,-0.00738916
0.440000,0.01231527
0.444000,0.02463054
0.448000,0.03448276
0.452000,0.03448276
0.456000,0.04679803
0.460000,0.04433498
0.464000,0.05665025
0.468000,0.05172414
0.472000,0.06403941
0.476000,0.08128079
0.480000,0.09359606
0.484000,0.11083744
0.488000,0.12068966
0.492000,0.12561576
0.496000,0.12315271
0.500000,0.13054187
0.504000,0.12315271
0.508000,0.11576355
0.512000,0.11822660
0.516000,0.11576355
0.520000,0.10098522
0.524000,0.09359606
0.528000,0.08866995
0.532000,0.07389163
0.536000,0.06157635
0.540000,0.05418719
0.544000,0.04926108
0.548000,0.04187192
0.552000,0.04926108
0.556000,0.04926108
0.560000,0.04187192
0.564000,0.03448276
0.568000,0.01231527
0.572000,0.02463054
0.576000,0.02463054
0.580000,0.03694581
0.584000,0.03448276
0.588000,0.02955665
0.592000,0.03201970
0.596000,0.01231527
0.600000,0.00985222
0.604000,-0.00246305
0.608000,-0.00246305
0.612000,0.01231527
0.616000,0.01724138
0.620000,0.01231527
0.624000,0.01477833
0.628000,0.01231527
0.632000,0.00000000
0.636000,0.00000000
0.640000,0.00246305
0.644000,0.00738916
0.648000,0.01724138
0.652000,0.03201970
0.656000,0.05911330
0.660000,0.10098522
0.664000,0.17241379
0.668000,0.27093596
0.672000,0.34482759
0.676000,0.37192118
0.680000,0.40147783
0.684000,0.43349754
0.688000,0.47783251
0.692000,0.46305419
0.696000,0.30049261
0.700000,0.04187192
0.704000,-0.18472906
0.708000,-0.29556650
0.712000,-0.28078818
0.716000,-0.19458128
0.720000,-0.12068966
0.724000,-0.08374384
0.728000,-0.07389163
0.732000,-0.09113300
0.736000,-0.09113300
0.740000,-0.08620690
0.744000,-0.07881773
0.748000,-0.06896552
0.752000,-0.05911330
0.756000,-0.05665025
0.760000,-0.06403941
0.764000,-0.08374384
0.768000,-0.06650246
0.772000,-0.07635468
0.776000,-0.08128079
0.780000,-0.07635468
0.784000,-0.06157635
0.788000,-0.06896552
0.792000,-0.05911330
0.796000,-0.07635468
0.800000,-0.07389163
0.804000,-0.07142857
0.808000,-0.07142857
0.812000,-0.06896552
0.816000,-0.05418719
0.820000,-0.06157635
0.824000,-0.06650246
0.828000,-0.06157635
0.832000,-0.06403941
0.836000,-0.06650246
0.840000,-0.07389163
0.844000,-0.05911330
0.848000,-0.03940887
0.852000,-0.04187192
0.856000,-0.02955665
0.860000,-0.03694581
0.864000,-0.04679803
0.868000,-0.03448276
0.872000,-0.02463054
0.876000,-0.02216749
0.880000,-0.00492611
0.884000,-0.00738916
0.888000,0.00246305
0.892000,0.00000000
0.896000,-0.01231527
0.900000,-0.00246305
0.904000,-0.00738916
0.908000,0.00000000
0.912000,0.00492611
0.916000,0.02709360
0.920000,0.01970443
0.924000,0.02216749
0.928000,0.02463054
0.932000,0.01477833
0.936000,0.01231527
0.940000,0.00738916
0.944000,0.00738916
0.948000,0.02463054
0.952000,0.01970443
0.956000,0.01724138
0.960000,0.01231527
0.964000,0.00492611
0.968000,-0.00738916
0.972000,-0.00246305
0.976000,0.00000000
0.980000,0.00985222
0.984000,0.00738916
0.988000,0.00738916
0.992000,-0.00492611
0.996000,-0.00985222
1.000000,-0.00738916
1.004000,-0.01724138
1.008000,-0.00985222
1.012000,-0.02216749
1.016000,-0.00985222
1.020000,0.00738916
1.024000,0.00985222
1.028000,0.00985222
1.032000,0.00492611
1.036000,0.01724138
1.040000,0.03448276
1.044000,0.04679803
1.048000,0.05172414
1.052000,0.06650246
1.056000,0.08374384
1.060000,0.07881773
1.064000,0.07881773
1.068000,0.07881773
1.072000,0.08620690
1.076000,0.09359606
1.080000,0.07881773
1.084000,0.07635468
1.088000,0.05911330
1.092000,0.07389163
1.096000,0.05418719
1.100000,0.04679803
1.104000,0.03201970
1.108000,0.01231527
1.112000,0.01231527
1.116000,0.01970443
1.120000,0.01970443
1.124000,0.02216749
1.128000,0.00492611
1.132000,0.00738916
1.136000,0.00000000
1.140000,0.00000000
1.144000,0.00000000
1.148000,0.00738916
1.152000,0.00985222
1.156000,0.01231527
1.160000,0.00738916
1.164000,-0.00985222
1.168000,-0.01231527
1.172000,-0.01477833
1.176000,-0.00738916
1.180000,0.00492611
1.184000,0.00985222
1.188000,0.00738916
1.192000,0.00738916
1.196000,0.00492611
1.200000,0.00246305
1.204000,-0.00492611
1.208000,0.00985222
1.212000,0.04187192
1.216000,0.05665025
1.220000,0.10591133
1.224000,0.19211823
1.228000,0.27832512
1.232000,0.35221675
1.236000,0.37438424
1.240000,0.39162562
1.244000,0.41871921
1.248000,0.43596059
1.252000,0.34236453
1.256000,0.13054187
1.260000,-0.10837438
1.264000,-0.27339901
1.268000,-0.30541872
1.272000,-0.25615764
1.276000,-0.17241379
1.280000,-0.10098522
1.284000,-0.07635468
1.288000,-0.07142857
1.292000,-0.07881773
1.296000,-0.07881773
1.300000,-0.07881773
1.304000,-0.08128079
1.308000,-0.07881773
1.312000,-0.06650246
1.316000,-0.05911330
1.320000,-0.05418719
1.324000,-0.05172414
1.328000,-0.06157635
1.332000,-0.06896552
1.336000,-0.06896552
1.340000,-0.07142857
1.344000,-0.07389163
1.348000,-0.06403941
1.352000,-0.05911330
1.356000,-0.05911330
1.360000,-0.06157635
1.364000,-0.06650246
1.368000,-0.06650246
1.372000,-0.07389163
1.376000,-0.06650246
1.380000,-0.06650246
1.384000,-0.05418719
1.388000,-0.05418719
1.392000,-0.04926108
1.396000,-0.06403941
1.400000,-0.07389163
1.404000,-0.05172414
1.408000,-0.05665025
1.412000,-0.03448276
1.416000,-0.03940887
1.420000,-0.02463054
1.424000,-0.02463054
1.428000,-0.04187192
1.432000,-0.03694581
1.436000,-0.02709360
1.440000,-0.03201970
1.444000,-0.02216749
1.448000,-0.00985222
1.452000,-0.00738916
1.456000,-0.00246305
1.460000,-0.00492611
1.464000,-0.02955665
1.468000,-0.02216749
1.472000,-0.01724138
1.476000,-0.00985222
1.480000,-0.00985222
1.484000,0.00738916
1.488000,0.00985222
1.492000,0.00738916
1.496000,-0.01231527
1.500000,-0.00738916
1.504000,0.00246305
1.508000,0.00985222
1.512000,0.01231527
1.516000,0.02216749
1.520000,0.02709360
1.524000,0.03201970
1.528000,0.04433498
1.532000,0.06157635
1.536000,0.09359606
1.540000,0.13054187
1.544000,0.19950739
1.548000,0.26847291
1.552000,0.35221675
1.556000,0.45073892
1.560000,0.55911330
1.564000,0.67980296
1.568000,0.78817734
1.572000,0.89655172
1.576000,0.96305419
1.580000,0.99753695
1.584000,0.98275862
1.588000,0.95320197
1.592000,0.88423645
1.596000,0.77093596
1.600000,0.63793103
1.604000,0.44827586
1.608000,0.20197044
1.612000,-0.06896552
1.616000,-0.27832512
1.620000,-0.37684729
1.624000,-0.37931034
1.628000,-0.30788177
1.632000,-0.21182266
1.636000,-0.14532020
1.640000,-0.11083744
1.644000,-0.11822660
1.648000,-0.14285714
1.652000,-0.17733990
1.656000,-0.21182266
1.660000,-0.25862069
1.664000,-0.29064039
1.668000,-0.28571429
1.672000,-0.29802956
1.676000,-0.29064039
1.680000,-0.27832512
1.684000,-0.27586207
1.688000,-0.25862069
1.692000,-0.25123153
1.696000,-0.25369458
1.700000,-0.24876847
1.704000,-0.26108374
1.708000,-0.26354680
1.712000,-0.27339901
1.716000,-0.27093596
1.720000,-0.27339901
1.724000,-0.27586207
1.728000,-0.29310345
1.732000,-0.30541872
1.736000,-0.32266010
1.740000,-0.33251232
1.744000,-0.32758621
1.748000,-0.32758621
1.752000,-0.32512315
1.756000,-0.32266010
1.760000,-0.32758621
1.764000,-0.34975369
1.768000,-0.32758621
1.772000,-0.33004926
1.776000,-0.31527094
1.780000,-0.30049261
1.784000,-0.29556650
1.788000,-0.28571429
1.792000,-0.27832512
1.796000,-0.25615764
1.800000,-0.23891626
1.804000,-0.22167488
1.808000,-0.19458128
1.812000,-0.16748768
1.816000,-0.12807882
1.820000,-0.10344828
1.824000,-0.09113300
1.828000,-0.07389163
1.832000,-0.06157635
1.836000,-0.04433498
1.840000,-0.03940887
1.844000,-0.01970443
1.848000,-0.01477833
1.852000,-0.01724138
1.856000,-0.00492611
1.860000,-0.00985222
1.864000,-0.00492611
1.868000,-0.01231527
1.872000,-0.01970443
1.876000,-0.01724138
1.880000,-0.00246305
1.884000,0.00000000
1.888000,-0.00738916
1.892000,-0.02709360
1.896000,-0.03201970
1.900000,-0.02955665
1.904000,-0.03201970
1.908000,-0.04679803
1.912000,-0.04433498
1.916000,-0.03694581
1.920000,-0.03448276
1.924000,-0.03694581
1.928000,-0.02955665
1.932000,-0.03694581
1.936000,-0.03448276
1.940000,-0.03448276
1.944000,-0.02463054
1.948000,-0.01477833
1.952000,-0.00492611
1.956000,-0.00985222
1.960000,-0.01724138
1.964000,-0.01477833
1.968000,-0.01477833
1.972000,-0.02216749
1.976000,-0.01477833
1.980000,-0.01231527
1.984000,-0.01231527
1.988000,-0.00985222
1.992000,-0.01231527
1.996000,-0.01970443
2.000000,-0.01970443
2.004000,-0.03448276
2.008000,-0.01970443
2.012000,-0.00985222
2.016000,-0.01477833
2.020000,-0.01231527
2.024000,-0.00738916
2.028000,-0.01231527
2.032000,-0.02216749
2.036000,-0.02463054
2.040000,-0.02955665
2.044000,-0.02216749
2.048000,-0.01477833
2.052000,-0.01970443
2.056000,-0.03201970
2.060000,-0.02709360
2.064000,-0.02216749
2.068000,-0.03448276
2.072000,-0.03448276
2.076000,-0.02709360
2.080000,-0.00985222
2.084000,-0.01231527
2.088000,-0.01724138
2.092000,-0.00985222
2.096000,-0.02955665
2.100000,-0.02463054
2.104000,-0.02216749
2.108000,-0.02709360
2.112000,-0.01970443
2.116000,-0.02216749
2.120000,-0.01724138
2.124000,-0.01724138
2.128000,-0.02955665
2.132000,-0.02955665
2.136000,-0.03448276
2.140000,-0.02955665
2.144000,-0.01970443
2.148000,-0.02216749
2.152000,-0.01724138
2.156000,-0.01724138
2.160000,-0.01724138
2.164000,-0.00985222
2.168000,-0.01970443
2.172000,-0.01477833
2.176000,-0.01231527
2.180000,0.00000000
2.184000,0.00985222
2.188000,0.02463054
2.192000,0.02216749
2.196000,0.02709360
2.200000,0.03940887
2.204000,0.03694581
2.208000,0.04433498
2.212000,0.05911330
2.216000,0.05911330
2.220000,0.06157635
2.224000,0.05418719
2.228000,0.03448276
2.232000,0.02709360
2.236000,0.01477833
2.240000,0.02463054
2.244000,0.00985222
2.248000,-0.00246305
2.252000,-0.00246305
2.256000,-0.00738916
2.260000,-0.03201970
2.264000,-0.03201970
2.268000,-0.01477833
2.272000,-0.01970443
2.276000,-0.02216749
2.280000,-0.02709360
2.284000,-0.02463054
2.288000,-0.02709360
2.292000,-0.01970443
2.296000,-0.02709360
2.300000,-0.03448276
2.304000,-0.02709360
2.308000,-0.02216749
2.312000,-0.03201970
2.316000,-0.01724138
2.320000,-0.02955665
2.324000,-0.02463054
2.328000,-0.03448276
2.332000,-0.03694581
2.336000,-0.03694581
2.340000,-0.02709360
2.344000,-0.01477833
2.348000,-0.01477833
2.352000,0.00000000
2.356000,0.01231527
2.360000,0.04926108
2.364000,0.11083744
2.368000,0.20935961
2.372000,0.30541872
2.376000,0.35467980
2.380000,0.38669951
2.384000,0.43842365
2.388000,0.47290640
2.392000,0.43349754
2.396000,0.24384236
2.400000,-0.00492611
2.404000,-0.23645320
2.408000,-0.33497537
2.412000,-0.31773399
2.416000,-0.23399015
2.420000,-0.15270936
2.424000,-0.10344828
2.428000,-0.10591133
2.432000,-0.11822660
2.436000,-0.11330049
2.440000,-0.11576355
2.444000,-0.11330049
2.448000,-0.10344828
2.452000,-0.10098522
2.456000,-0.10098522
2.460000,-0.10837438
2.464000,-0.11822660
2.468000,-0.12807882
2.472000,-0.11576355
2.476000,-0.11576355
2.480000,-0.10344828
2.484000,-0.10591133
2.488000,-0.11083744
2.492000,-0.11083744
2.496000,-0.11330049
2.500000,-0.12315271
2.504000,-0.11083744
2.508000,-0.10344828
2.512000,-0.10098522
2.516000,-0.10098522
2.520000,-0.09605911
2.524000,-0.09605911
2.528000,-0.10344828
2.532000,-0.10591133
2.536000,-0.10344828
2.540000,-0.11576355
2.544000,-0.09852217
2.548000,-0.10591133
2.552000,-0.10344828
2.556000,-0.07881773
2.560000,-0.08620690
2.564000,-0.10591133
2.568000,-0.12068966
2.572000,-0.11822660
2.576000,-0.11822660
2.580000,-0.10837438
2.584000,-0.10344828
2.588000,-0.10837438
2.592000,-0.11330049
2.596000,-0.12315271
2.600000,-0.13793103
2.604000,-0.13300493
2.608000,-0.13546798
2.612000,-0.12807882
2.616000,-0.13793103
2.620000,-0.13054187
2.624000,-0.13793103
2.628000,-0.14285714
2.632000,-0.15517241
2.636000,-0.13300493
2.640000,-0.13300493
2.644000,-0.12315271
2.648000,-0.11083744
2.652000,-0.09359606
2.656000,-0.09852217
2.660000,-0.09359606
2.664000,-0.09113300
2.668000,-0.09359606
2.672000,-0.10098522
2.676000,-0.09605911
2.680000,-0.09113300
2.684000,-0.09605911
2.688000,-0.09605911
2.692000,-0.10344828
2.696000,-0.10344828
2.700000,-0.10344828
2.704000,-0.11330049
2.708000,-0.11822660
2.712000,-0.09852217
2.716000,-0.09605911
2.720000,-0.09359606
2.724000,-0.09359606
2.728000,-0.10098522
2.732000,-0.09605911
2.736000,-0.10591133
2.740000,-0.10098522
2.744000,-0.07635468
2.748000,-0.04926108
2.752000,-0.03940887
2.756000,-0.03201970
2.760000,-0.02216749
2.764000,-0.01477833
2.768000,-0.00738916
2.772000,0.00738916
2.776000,0.01970443
2.780000,0.02216749
2.784000,0.01970443
2.788000,0.01970443
2.792000,0.01231527
2.796000,0.01231527
2.800000,0.01231527
2.804000,0.00738916
2.808000,-0.00246305
2.812000,0.00246305
2.816000,-0.00738916
2.820000,-0.00738916
2.824000,0.00000000
2.828000,-0.00985222
2.832000,-0.01970443
2.836000,-0.01724138
2.840000,-0.02216749
2.844000,-0.00985222
2.848000,-0.01724138
2.852000,0.00000000
2.856000,0.00492611
2.860000,0.00000000
2.864000,-0.01477833
2.868000,-0.01231527
2.872000,-0.00492611
2.876000,-0.00492611
2.880000,0.00000000
2.884000,0.00738916
2.888000,0.00738916
2.892000,0.00738916
2.896000,0.00000000
2.900000,-0.00246305
2.904000,0.00246305
2.908000,0.01231527
2.912000,0.01970443
2.916000,0.02955665
2.920000,0.05172414
2.924000,0.06896552
2.928000,0.12315271
2.932000,0.19950739
2.936000,0.30541872
2.940000,0.38916256
2.944000,0.43349754
2.948000,0.44088670
2.952000,0.47536946
2.956000,0.50492611
2.960000,0.46305419
2.964000,0.28571429
2.968000,0.02955665
2.972000,-0.18719212
2.976000,-0.27093596
2.980000,-0.24384236
2.984000,-0.16256158
2.988000,-0.07389163
2.992000,-0.03201970
2.996000,-0.03694581
3.000000,-0.03201970
3.004000,-0.04679803
3.008000,-0.04679803
3.012000,-0.04433498
3.016000,-0.03940887
3.020000,-0.02955665
3.024000,-0.02709360
3.028000,-0.02955665
3.032000,-0.05172414
3.036000,-0.04926108
3.040000,-0.04187192
3.044000,-0.03940887
3.048000,-0.03940887
3.052000,-0.02709360
3.056000,-0.03940887
3.060000,-0.04187192
3.064000,-0.05418719
3.068000,-0.05911330
3.072000,-0.07142857
3.076000,-0.05665025
3.080000,-0.05172414
3.084000,-0.03940887
3.088000,-0.04433498
3.092000,-0.03448276
3.096000,-0.04926108
3.100000,-0.05172414
3.104000,-0.04679803
3.108000,-0.05172414
3.112000,-0.04187192
3.116000,-0.03201970
3.120000,-0.02709360
3.124000,-0.02955665
3.128000,-0.03448276
3.132000,-0.04187192
3.136000,-0.02955665
3.140000,-0.03940887
3.144000,-0.01477833
3.148000,-0.00738916
3.152000,-0.00738916
3.156000,0.00000000
3.160000,0.00000000
3.164000,-0.00985222
3.168000,-0.00985222
3.172000,-0.00738916
3.176000,0.00246305
3.180000,0.00492611
3.184000,0.00492611
3.188000,0.01724138
3.192000,0.00492611
3.196000,0.00000000
3.200000,0.00000000
3.204000,0.00985222
3.208000,-0.00985222
3.212000,-0.00492611
3.216000,-0.00492611
3.220000,-0.00246305
3.224000,-0.00246305
3.228000,-0.01231527
3.232000,-0.02463054
3.236000,-0.03201970
3.240000,-0.03201970
3.244000,-0.02216749
3.248000,-0.01724138
3.252000,-0.02709360
3.256000,-0.03448276
3.260000,-0.02216749
3.264000,-0.02955665
3.268000,-0.04187192
3.272000,-0.04187192
3.276000,-0.04433498
3.280000,-0.03694581
3.284000,-0.02463054
3.288000,-0.02709360
3.292000,-0.02709360
3.296000,-0.04187192
3.300000,-0.03940887
3.304000,-0.03448276
3.308000,-0.02709360
3.312000,-0.02216749
3.316000,-0.01477833
3.320000,-0.01724138
3.324000,0.00738916
3.328000,0.00738916
3.332000,0.00000000
3.336000,0.00985222
3.340000,0.01477833
3.344000,0.03201970
3.348000,0.04926108
3.352000,0.04926108
3.356000,0.04926108
3.360000,0.04679803
3.364000,0.02463054
3.368000,0.01477833
3.372000,0.01477833
3.376000,0.00492611
3.380000,0.02463054
3.384000,0.01231527
3.388000,0.00000000
3.392000,-0.00985222
3.396000,-0.01970443
3.400000,-0.03940887
3.404000,-0.02955665
3.408000,-0.02955665
3.412000,-0.02955665
3.416000,-0.03694581
3.420000,-0.02463054
3.424000,-0.03201970
3.428000,-0.04187192
3.432000,-0.04679803
3.436000,-0.04433498
3.440000,-0.03694581
3.444000,-0.02463054
3.448000,-0.02463054
3.452000,-0.01724138
3.456000,-0.02709360
3.460000,-0.02216749
3.464000,-0.03940887
3.468000,-0.03694581
3.472000,-0.03940887
3.476000,-0.03201970
3.480000,-0.02216749
3.484000,-0.01970443
3.488000,-0.01724138
3.492000,-0.02463054
3.496000,-0.01724138
3.500000,-0.02463054
3.504000,-0.00738916
3.508000,0.01477833
3.512000,0.07635468
3.516000,0.14778325
3.520000,0.24876847
3.524000,0.32758621
3.528000,0.33990148
3.532000,0.33497537
3.536000,0.36206897
3.540000,0.37684729
3.544000,0.35960591
3.548000,0.21428571
3.552000,-0.01724138
3.556000,-0.22906404
3.560000,-0.33251232
3.564000,-0.31527094
3.568000,-0.24384236
3.572000,-0.16748768
3.576000,-0.11330049
3.580000,-0.07881773
3.584000,-0.07881773
3.588000,-0.08620690
3.592000,-0.08128079
3.596000,-0.07881773
3.600000,-0.09113300
3.604000,-0.08374384
3.608000,-0.07881773
3.612000,-0.07881773
3.616000,-0.06896552
3.620000,-0.06650246
3.624000,-0.08128079
3.628000,-0.08374384
3.632000,-0.09113300
3.636000,-0.08866995
3.640000,-0.09113300
3.644000,-0.08866995
3.648000,-0.08866995
3.652000,-0.07635468
3.656000,-0.08620690
3.660000,-0.07635468
3.664000,-0.08866995
3.668000,-0.09605911
3.672000,-0.08866995
3.676000,-0.09359606
3.680000,-0.08374384
3.684000,-0.07881773
3.688000,-0.08620690
3.692000,-0.07881773
3.696000,-0.07635468
3.700000,-0.08128079
3.704000,-0.08620690
3.708000,-0.08128079
3.712000,-0.06896552
3.716000,-0.05911330
3.720000,-0.04679803
3.724000,-0.04926108
3.728000,-0.05665025
3.732000,-0.05911330
3.736000,-0.05911330
3.740000,-0.05418719
3.744000,-0.03201970
3.748000,-0.02216749
3.752000,-0.02955665
3.756000,-0.03694581
3.760000,-0.02463054
3.764000,-0.03694581
3.768000,-0.03448276
3.772000,-0.03694581
3.776000,-0.01970443
3.780000,-0.00985222
3.784000,-0.00492611
3.788000,-0.01477833
3.792000,-0.00985222
3.796000,-0.00985222
3.800000,-0.01970443
3.804000,-0.02463054
3.808000,-0.02216749
3.812000,-0.00985222
3.816000,-0.00492611
3.820000,-0.00492611
3.824000,-0.00492611
3.828000,-0.01231527
3.832000,-0.02463054
3.836000,-0.02463054
3.840000,-0.02709360
3.844000,-0.02463054
3.848000,-0.02216749
3.852000,-0.01724138
3.856000,-0.02216749
3.860000,-0.02709360
3.864000,-0.04187192
3.868000,-0.03201970
3.872000,-0.03694581
3.876000,-0.03940887
3.880000,-0.03940887
3.884000,-0.02463054
3.888000,-0.02463054
3.892000,-0.01724138
3.896000,-0.02463054
3.900000,-0.02216749
3.904000,-0.00492611
3.908000,0.00246305
3.912000,0.01724138
3.916000,0.04679803
3.920000,0.04679803
3.924000,0.04926108
3.928000,0.06157635
3.932000,0.05911330
3.936000,0.05665025
3.940000,0.05418719
3.944000,0.04926108
3.948000,0.04187192
3.952000,0.03448276
3.956000,0.02955665
3.960000,0.03201970
3.964000,0.01724138
3.968000,0.00738916
3.972000,-0.00738916
3.976000,-0.00246305
3.980000,-0.00246305
3.984000,-0.00738916
3.988000,-0.00492611
3.992000,-0.01477833
3.996000,-0.01231527
4.000000,-0.02216749
4.004000,-0.02463054
4.008000,-0.02709360
4.012000,-0.01970443
4.016000,-0.02709360
4.020000,-0.02709360
4.024000,-0.03448276
4.028000,-0.04926108
4.032000,-0.04926108
4.036000,-0.04679803
4.040000,-0.04433498
4.044000,-0.04433498
4.048000,-0.03940887
4.052000,-0.02955665
4.056000,-0.02463054
4.060000,-0.03448276
4.064000,-0.04433498
4.068000,-0.03940887
4.072000,-0.02709360
4.076000,-0.02216749
4.080000,-0.00492611
4.084000,0.02216749
4.088000,0.05418719
4.092000,0.13300493
4.096000,0.21921182
4.100000,0.29064039
4.104000,0.32758621
4.108000,0.34236453
4.112000,0.39408867
4.116000,0.44827586
4.120000,0.41133005
4.124000,0.23152709
4.128000,-0.03694581
4.132000,-0.25123153
4.136000,-0.33743842
4.140000,-0.30295567
4.144000,-0.20689655
4.148000,-0.13793103
4.152000,-0.09113300
4.156000,-0.08620690
4.160000,-0.09605911
4.164000,-0.11330049
4.168000,-0.11576355
4.172000,-0.11083744
4.176000,-0.10344828
4.180000,-0.09359606
4.184000,-0.09605911
4.188000,-0.10098522
4.192000,-0.09605911
4.196000,-0.10344828
4.200000,-0.11083744
4.204000,-0.10837438
4.208000,-0.10591133
4.212000,-0.10344828
4.216000,-0.09113300
4.220000,-0.09852217
4.224000,-0.08620690
4.228000,-0.08620690
4.232000,-0.09852217
4.236000,-0.09605911
4.240000,-0.10344828
4.244000,-0.09852217
4.248000,-0.09359606
4.252000,-0.09113300
4.256000,-0.07881773
4.260000,-0.08620690
4.264000,-0.09605911
4.268000,-0.09359606
4.272000,-0.09605911
4.276000,-0.08620690
4.280000,-0.07881773
4.284000,-0.08128079
4.288000,-0.06650246
4.292000,-0.06650246
4.296000,-0.05418719
4.300000,-0.05665025
4.304000,-0.05665025
4.308000,-0.05172414
4.312000,-0.04187192
4.316000,-0.03940887
4.320000,-0.04187192
4.324000,-0.05172414
4.328000,-0.04926108
4.332000,-0.05418719
4.336000,-0.04926108
4.340000,-0.04679803
4.344000,-0.03940887
4.348000,-0.03448276
4.352000,-0.03201970
4.356000,-0.02463054
4.360000,-0.03694581
4.364000,-0.05172414
4.368000,-0.03448276
4.372000,-0.03201970
4.376000,-0.03940887
4.380000,-0.03448276
4.384000,-0.02709360
4.388000,-0.03201970
4.392000,-0.02463054
4.396000,-0.04433498
4.400000,-0.04679803
4.404000,-0.04679803
4.408000,-0.04433498
4.412000,-0.03448276
4.416000,-0.02709360
4.420000,-0.02955665
4.424000,-0.03448276
4.428000,-0.03694581
4.432000,-0.02709360
4.436000,-0.04433498
4.440000,-0.01724138
4.444000,-0.01477833
4.448000,-0.00246305
4.452000,0.00985222
4.456000,0.01477833
4.460000,0.01231527
4.464000,0.00985222
4.468000,0.01477833
4.472000,0.02463054
4.476000,0.03940887
4.480000,0.06403941
4.484000,0.06896552
4.488000,0.08128079
4.492000,0.08374384
4.496000,0.08620690
4.500000,0.07389163
4.504000,0.06650246
4.508000,0.05172414
4.512000,0.05418719
4.516000,0.05911330
4.520000,0.05172414
4.524000,0.04433498
4.528000,0.03448276
4.532000,0.02216749
4.536000,0.00985222
4.540000,0.00246305
4.544000,0.00246305
4.548000,0.00985222
4.552000,0.00492611
4.556000,0.00492611
4.560000,0.00000000
4.564000,-0.00492611
4.568000,-0.00492611
4.572000,-0.01724138
4.576000,-0.01477833
4.580000,-0.02216749
4.584000,-0.02216749
4.588000,-0.01724138
4.592000,-0.01724138
4.596000,-0.02463054
4.600000,-0.02463054
4.604000,-0.02463054
4.608000,-0.02955665
4.612000,-0.02463054
4.616000,-0.01477833
4.620000,-0.02463054
4.624000,-0.01970443
4.628000,-0.02955665
4.632000,-0.04679803
4.636000,-0.02955665
4.640000,-0.02463054
4.644000,0.00246305
4.648000,0.02709360
4.652000,0.10591133
4.656000,0.19458128
4.660000,0.26600985
4.664000,0.30049261
4.668000,0.32019704
4.672000,0.33990148
4.676000,0.38177340
4.680000,0.38669951
4.684000,0.28817734
4.688000,0.08374384
4.692000,-0.14778325
4.696000,-0.29556650
4.700000,-0.32758621
4.704000,-0.26600985
4.708000,-0.18472906
4.712000,-0.13054187
4.716000,-0.10098522
4.720000,-0.10344828
4.724000,-0.09852217
4.728000,-0.12561576
4.732000,-0.11822660
4.736000,-0.12068966
4.740000,-0.11330049
4.744000,-0.10344828
4.748000,-0.09605911
4.752000,-0.09605911
4.756000,-0.09852217
4.760000,-0.09605911
4.764000,-0.09605911
4.768000,-0.10591133
4.772000,-0.11330049
4.776000,-0.10591133
4.780000,-0.10591133
4.784000,-0.11330049
4.788000,-0.09605911
4.792000,-0.10344828
4.796000,-0.11083744
4.800000,-0.10098522
4.804000,-0.11576355
4.808000,-0.10591133
4.812000,-0.10098522
4.816000,-0.09852217
4.820000,-0.08374384
4.824000,-0.07881773
4.828000,-0.08866995
4.832000,-0.09113300
4.836000,-0.09359606
4.840000,-0.07389163
4.844000,-0.06403941
4.848000,-0.06650246
4.852000,-0.06157635
4.856000,-0.06650246
4.860000,-0.05911330
4.864000,-0.05911330
4.868000,-0.05665025
4.872000,-0.05665025
4.876000,-0.05911330
4.880000,-0.04926108
4.884000,-0.02955665
4.888000,-0.03448276
4.892000,-0.03201970
4.896000,-0.04926108
4.900000,-0.04187192
4.904000,-0.03448276
4.908000,-0.03201970
4.912000,-0.02216749
4.916000,-0.01724138
4.920000,-0.00738916
4.924000,-0.00985222
4.928000,-0.01724138
4.932000,-0.03694581
4.936000,-0.03940887
4.940000,-0.03694581
4.944000,-0.02955665
4.948000,-0.02955665
4.952000,-0.02463054
4.956000,-0.01970443
4.960000,-0.03448276
4.964000,-0.04433498
4.968000,-0.03940887
4.972000,-0.04679803
4.976000,-0.04433498
4.980000,-0.04187192
4.984000,-0.04926108
4.988000,-0.04433498
4.992000,-0.03940887
4.996000,-0.05418719
5.000000,-0.05665025
5.004000,-0.05911330
5.008000,-0.04679803
5.012000,-0.05172414
5.016000,-0.03940887
5.020000,-0.01724138
5.024000,-0.02216749
5.028000,-0.02955665
5.032000,-0.01970443
5.036000,-0.02709360
5.040000,-0.00246305
5.044000,0.00985222
5.048000,0.02216749
5.052000,0.04187192
5.056000,0.04679803
5.060000,0.04679803
5.064000,0.04187192
5.068000,0.04433498
5.072000,0.02955665
5.076000,0.03201970
5.080000,0.02709360
5.084000,0.02709360
5.088000,0.03448276
5.092000,0.03201970
5.096000,0.00492611
5.100000,-0.00985222
5.104000,-0.02463054
5.108000,-0.02955665
5.112000,-0.01724138
5.116000,-0.00985222
5.120000,-0.01724138
5.124000,-0.01724138
5.128000,-0.01724138
5.132000,-0.03448276
5.136000,-0.03201970
5.140000,-0.03694581
5.144000,-0.03940887
5.148000,-0.00985222
5.152000,-0.01724138
5.156000,-0.01970443
5.160000,-0.01970443
5.164000,-0.03201970
5.168000,-0.03448276
5.172000,-0.03201970
5.176000,-0.02709360
5.180000,-0.02216749
5.184000,-0.01477833
5.188000,-0.02216749
5.192000,-0.01724138
5.196000,-0.03694581
5.200000,-0.02955665
5.204000,-0.03201970
5.208000,-0.02216749
5.212000,0.00000000
5.216000,0.03694581
5.220000,0.10591133
5.224000,0.20197044
5.228000,0.27832512
5.232000,0.30295567
5.236000,0.31280788
5.240000,0.33004926
5.244000,0.36206897
5.248000,0.33251232
5.252000,0.18226601
5.256000,-0.03940887
5.260000,-0.22167488
5.264000,-0.29556650
5.268000,-0.26108374
5.272000,-0.18472906
5.276000,-0.12068966
5.280000,-0.08866995
5.284000,-0.07389163
5.288000,-0.06896552
5.292000,-0.07881773
5.296000,-0.09113300
5.300000,-0.10344828
5.304000,-0.09605911
5.308000,-0.08374384
5.312000,-0.08866995
5.316000,-0.09113300
5.320000,-0.08374384
5.324000,-0.07881773
5.328000,-0.09359606
5.332000,-0.09852217
5.336000,-0.10098522
5.340000,-0.10837438
5.344000,-0.10098522
5.348000,-0.10098522
5.352000,-0.09852217
5.356000,-0.09605911
5.360000,-0.09852217
5.364000,-0.10591133
5.368000,-0.10837438
5.372000,-0.11083744
5.376000,-0.10098522
5.380000,-0.09852217
5.384000,-0.08620690
5.388000,-0.08128079
5.392000,-0.07389163
5.396000,-0.09605911
5.400000,-0.09605911
5.404000,-0.08620690
5.408000,-0.09605911
5.412000,-0.07635468
5.416000,-0.06650246
5.420000,-0.06403941
5.424000,-0.06157635
5.428000,-0.05911330
5.432000,-0.06403941
5.436000,-0.05911330
5.440000,-0.05418719
5.444000,-0.05665025
5.448000,-0.04433498
5.452000,-0.04187192
5.456000,-0.04187192
5.460000,-0.04187192
5.464000,-0.04187192
5.468000,-0.03694581
5.472000,-0.04187192
5.476000,-0.04433498
5.480000,-0.03694581
5.484000,-0.02955665
5.488000,-0.03201970
5.492000,-0.02463054
5.496000,-0.02463054
5.500000,-0.03694581
5.504000,-0.03940887
5.508000,-0.03694581
5.512000,-0.01970443
5.516000,-0.00492611
5.520000,0.00492611
5.524000,0.01970443
5.528000,0.03694581
5.532000,0.07881773
5.536000,0.13054187
5.540000,0.19458128
5.544000,0.26847291
5.548000,0.35714286
5.552000,0.45812808
5.556000,0.56650246
5.560000,0.70197044
5.564000,0.79802956
5.568000,0.85714286
5.572000,0.87684729
5.576000,0.86699507
5.580000,0.82266010
5.584000,0.75123153
5.588000,0.64285714
5.592000,0.52463054
5.596000,0.34729064
5.600000,0.12068966
5.604000,-0.13793103
5.608000,-0.33251232
5.612000,-0.44088670
5.616000,-0.42857143
5.620000,-0.33004926
5.624000,-0.20935961
5.628000,-0.13054187
5.632000,-0.11822660
5.636000,-0.14039409
5.640000,-0.18226601
5.644000,-0.20689655
5.648000,-0.23399015
5.652000,-0.25862069
5.656000,-0.27586207
5.660000,-0.28325123
5.664000,-0.30788177
5.668000,-0.30541872
5.672000,-0.31034483
5.676000,-0.28817734
5.680000,-0.26600985
5.684000,-0.25123153
5.688000,-0.24384236
5.692000,-0.24137931
5.696000,-0.27093596
5.700000,-0.27339901
5.704000,-0.28325123
5.708000,-0.28817734
5.712000,-0.27339901
5.716000,-0.27832512
5.720000,-0.28325123
5.724000,-0.30049261
5.728000,-0.30049261
5.732000,-0.31034483
5.736000,-0.32512315
5.740000,-0.32758621
5.744000,-0.34729064
5.748000,-0.32019704
5.752000,-0.31527094
5.756000,-0.31527094
5.760000,-0.31280788
5.764000,-0.32019704
5.768000,-0.31280788
5.772000,-0.30541872
5.776000,-0.29310345
5.780000,-0.26354680
5.784000,-0.25123153
5.788000,-0.24137931
5.792000,-0.20935961
5.796000,-0.20443350
5.800000,-0.17487685
5.804000,-0.15763547
5.808000,-0.14039409
5.812000,-0.12068966
5.816000,-0.09852217
5.820000,-0.09113300
5.824000,-0.06650246
5.828000,-0.05911330
5.832000,-0.05665025
5.836000,-0.04679803
5.840000,-0.04433498
5.844000,-0.03448276
5.848000,-0.01724138
5.852000,-0.01970443
5.856000,-0.01970443
5.860000,-0.01477833
5.864000,-0.02463054
5.868000,-0.03940887
5.872000,-0.03694581
5.876000,-0.03940887
5.880000,-0.03940887
5.884000,-0.02463054
5.888000,-0.04187192
5.892000,-0.03448276
5.896000,-0.04926108
5.900000,-0.05172414
5.904000,-0.05172414
5.908000,-0.05418719
5.912000,-0.05418719
5.916000,-0.04433498
5.920000,-0.04926108
5.924000,-0.04187192
5.928000,-0.04187192
5.932000,-0.06157635
5.936000,-0.05911330
5.940000,-0.06157635
5.944000,-0.05172414
5.948000,-0.04187192
5.952000,-0.03694581
5.956000,-0.03448276
5.960000,-0.04433498
5.964000,-0.03940887
5.968000,-0.04433498
5.972000,-0.04679803
5.976000,-0.04926108
5.980000,-0.04679803
5.984000,-0.03448276
5.988000,-0.02955665
5.992000,-0.03694581
5.996000,-0.04433498
6.000000,-0.03940887
6.004000,-0.04433498
6.008000,-0.04926108
6.012000,-0.04679803
6.016000,-0.04433498
6.020000,-0.04926108
6.024000,-0.04679803
6.028000,-0.04679803
6.032000,-0.04926108
6.036000,-0.04433498
6.040000,-0.05911330
6.044000,-0.04679803
6.048000,-0.03940887
6.052000,-0.04433498
6.056000,-0.04679803
6.060000,-0.03940887
6.064000,-0.04433498
6.068000,-0.04679803
6.072000,-0.05911330
6.076000,-0.04433498
6.080000,-0.03694581
6.084000,-0.04433498
6.088000,-0.03694581
6.092000,-0.02955665
6.096000,-0.04433498
6.100000,-0.03694581
6.104000,-0.03940887
6.108000,-0.03694581
6.112000,-0.03201970
6.116000,-0.03694581
6.120000,-0.02709360
6.124000,-0.03201970
6.128000,-0.03940887
6.132000,-0.05665025
6.136000,-0.05172414
6.140000,-0.05665025
6.144000,-0.05172414
6.148000,-0.04679803
6.152000,-0.03448276
6.156000,-0.02709360
6.160000,-0.03940887
6.164000,-0.03940887
6.168000,-0.02709360
6.172000,-0.02709360
6.176000,-0.00985222
6.180000,0.00246305
6.184000,0.00985222
6.188000,0.00985222
6.192000,0.02709360
6.196000,0.02463054
6.200000,0.01970443
6.204000,0.02216749
6.208000,0.00246305
6.212000,0.00985222
6.216000,-0.00246305
6.220000,0.00000000
6.224000,0.00246305
6.228000,-0.01724138
6.232000,-0.02955665
6.236000,-0.04926108
6.240000,-0.04433498
6.244000,-0.05418719
6.248000,-0.04926108
6.252000,-0.03201970
6.256000,-0.03694581
6.260000,-0.03694581
6.264000,-0.04926108
6.268000,-0.05665025
6.272000,-0.04926108
6.276000,-0.04679803
6.280000,-0.04926108
6.284000,-0.02955665
6.288000,-0.04187192
6.292000,-0.03201970
6.296000,-0.04679803
6.300000,-0.04926108
6.304000,-0.04679803
6.308000,-0.04679803
6.312000,-0.03940887
6.316000,-0.03940887
6.320000,-0.03940887
6.324000,-0.03201970
6.328000,-0.02463054
6.332000,-0.02955665
6.336000,-0.02216749
6.340000,0.01231527
6.344000,0.05665025
6.348000,0.14532020
6.352000,0.24630542
6.356000,0.31527094
6.360000,0.34482759
6.364000,0.36453202
6.368000,0.39655172
6.372000,0.44088670
6.376000,0.39655172
6.380000,0.24384236
6.384000,-0.00492611
6.388000,-0.21428571
6.392000,-0.31527094
6.396000,-0.29064039
6.400000,-0.22660099
6.404000,-0.15517241
6.408000,-0.10591133
6.412000,-0.09852217
6.416000,-0.10837438
6.420000,-0.09852217
6.424000,-0.10591133
6.428000,-0.10344828
6.432000,-0.11576355
6.436000,-0.11330049
6.440000,-0.10837438
6.444000,-0.11330049
6.448000,-0.09852217
6.452000,-0.09605911
6.456000,-0.09852217
6.460000,-0.11576355
6.464000,-0.11576355
6.468000,-0.11330049
6.472000,-0.11576355
6.476000,-0.10837438
6.480000,-0.10837438
6.484000,-0.10344828
6.488000,-0.09852217
6.492000,-0.10344828
6.496000,-0.10591133
6.500000,-0.10098522
6.504000,-0.10837438
6.508000,-0.10344828
6.512000,-0.09605911
6.516000,-0.08866995
6.520000,-0.08866995
6.524000,-0.08866995
6.528000,-0.09359606
6.532000,-0.10344828
6.536000,-0.10344828
6.540000,-0.10344828
6.544000,-0.10098522
6.548000,-0.09605911
6.552000,-0.09359606
6.556000,-0.09852217
6.560000,-0.09852217
6.564000,-0.12315271
6.568000,-0.13054187
6.572000,-0.12315271
6.576000,-0.12315271
6.580000,-0.11822660
6.584000,-0.10837438
6.588000,-0.12315271
6.592000,-0.12807882
6.596000,-0.13793103
6.600000,-0.14039409
6.604000,-0.14039409
6.608000,-0.14285714
6.612000,-0.13546798
6.616000,-0.13793103
6.620000,-0.13054187
6.624000,-0.12315271
6.628000,-0.12561576
6.632000,-0.11822660
6.636000,-0.11083744
6.640000,-0.10837438
6.644000,-0.08866995
6.648000,-0.08620690
6.652000,-0.07389163
6.656000,-0.08620690
6.660000,-0.07635468
6.664000,-0.08866995
6.668000,-0.09359606
6.672000,-0.10098522
6.676000,-0.09113300
6.680000,-0.08620690
6.684000,-0.08620690
6.688000,-0.08128079
6.692000,-0.07881773
6.696000,-0.07881773
6.700000,-0.08620690
6.704000,-0.08620690
6.708000,-0.07881773
6.712000,-0.07635468
6.716000,-0.05418719
6.720000,-0.05418719
6.724000,-0.05418719
6.728000,-0.05172414
6.732000,-0.03448276
6.736000,-0.03448276
6.740000,-0.02216749
6.744000,-0.00985222
6.748000,0.00492611
6.752000,0.01724138
6.756000,0.02463054
6.760000,0.02709360
6.764000,0.02216749
6.768000,0.00985222
6.772000,0.00492611
6.776000,0.00492611
6.780000,0.01477833
6.784000,0.03448276
6.788000,0.02463054
6.792000,0.01231527
6.796000,-0.00985222
6.800000,-0.01724138
6.804000,-0.01477833
6.808000,-0.00985222
6.812000,-0.00738916
6.816000,0.00000000
6.820000,-0.00246305
6.824000,-0.00738916
6.828000,-0.00246305
6.832000,-0.01477833
6.836000,-0.01724138
6.840000,-0.01477833
6.844000,-0.01724138
6.848000,-0.00246305
6.852000,0.00985222
6.856000,0.00738916
6.860000,-0.00985222
6.864000,-0.00738916
6.868000,0.00000000
6.872000,-0.00985222
6.876000,-0.00246305
6.880000,0.00246305
6.884000,0.00985222
6.888000,0.02463054
6.892000,0.00985222
6.896000,0.01477833
6.900000,0.01477833
6.904000,0.02216749
6.908000,0.04679803
6.912000,0.09359606
6.916000,0.16748768
6.920000,0.27586207
6.924000,0.36206897
6.928000,0.41133005
6.932000,0.43349754
6.936000,0.45812808
6.940000,0.49753695
6.944000,0.45073892
6.948000,0.28571429
6.952000,0.01970443
6.956000,-0.18719212
6.960000,-0.26847291
6.964000,-0.23891626
6.968000,-0.15024631
6.972000,-0.06896552
6.976000,-0.03940887
6.980000,-0.01970443
6.984000,-0.02216749
6.988000,-0.02709360
6.992000,-0.02955665
6.996000,-0.04187192
7.000000,-0.04679803
7.004000,-0.03940887
7.008000,-0.03448276
7.012000,-0.02955665
7.016000,-0.02709360
7.020000,-0.03940887
7.024000,-0.03201970
7.028000,-0.03940887
7.032000,-0.04926108
7.036000,-0.04926108
7.040000,-0.04926108
7.044000,-0.04679803
7.048000,-0.03448276
7.052000,-0.03448276
7.056000,-0.04433498
7.060000,-0.04926108
7.064000,-0.04679803
7.068000,-0.04433498
7.072000,-0.04679803
7.076000,-0.02955665
7.080000,-0.02955665
7.084000,-0.02463054
7.088000,-0.02463054
7.092000,-0.02955665
7.096000,-0.02955665
7.100000,-0.02955665
7.104000,-0.01970443
7.108000,-0.02216749
7.112000,0.00492611
7.116000,0.00738916
7.120000,0.00246305
7.124000,0.00985222
7.128000,0.00246305
7.132000,0.00000000
7.136000,0.00492611
7.140000,0.00000000
7.144000,0.00000000
7.148000,0.00738916
7.152000,0.02955665
7.156000,0.02216749
7.160000,0.02216749
7.164000,0.01231527
7.168000,0.01724138
7.172000,0.01477833
7.176000,0.01970443
7.180000,0.01970443
7.184000,0.02955665
7.188000,0.02463054
7.192000,0.01724138
7.196000,0.00492611
7.200000,0.00246305
7.204000,0.00000000
7.208000,0.00000000
7.212000,-0.00246305
7.216000,0.00246305
7.220000,0.00492611
7.224000,-0.00492611
7.228000,-0.02463054
7.232000,-0.02955665
7.236000,-0.01970443
7.240000,-0.02216749
7.244000,-0.02216749
7.248000,-0.01724138
7.252000,-0.03694581
7.256000,-0.01724138
7.260000,-0.02216749
7.264000,-0.02709360
7.268000,-0.02216749
7.272000,-0.03201970
7.276000,-0.01970443
7.280000,-0.01231527
7.284000,-0.00246305
7.288000,0.00985222
7.292000,0.00000000
7.296000,0.00738916
7.300000,0.00985222
7.304000,0.00985222
7.308000,0.02955665
7.312000,0.04433498
7.316000,0.05418719
7.320000,0.07142857
7.324000,0.06403941
7.328000,0.06650246
7.332000,0.06157635
7.336000,0.04433498
7.340000,0.01724138
7.344000,0.03940887
7.348000,0.03694581
7.352000,0.03694581
7.356000,0.02955665
7.360000,0.01724138
7.364000,0.00246305
7.368000,-0.01724138
7.372000,-0.01970443
7.376000,-0.02709360
7.380000,-0.00985222
7.384000,-0.01477833
7.388000,-0.00492611
7.392000,-0.01477833
7.396000,-0.02955665
7.400000,-0.01970443
7.404000,-0.01970443
7.408000,-0.02216749
7.412000,-0.02216749
7.416000,-0.01724138
7.420000,-0.01477833
7.424000,-0.01231527
7.428000,-0.01724138
7.432000,-0.03201970
7.436000,-0.01477833
7.440000,-0.02463054
7.444000,-0.01477833
7.448000,-0.01477833
7.452000,-0.01477833
7.456000,-0.01724138
7.460000,-0.00492611
7.464000,-0.01724138
7.468000,-0.01970443
7.472000,-0.01477833
7.476000,-0.00492611
7.480000,0.01724138
7.484000,0.05418719
7.488000,0.10837438
7.492000,0.19950739
7.496000,0.27832512
7.500000,0.33004926
7.504000,0.33990148
7.508000,0.35467980
7.512000,0.38423645
7.516000,0.40886700
7.520000,0.32758621
7.524000,0.13054187
7.528000,-0.12315271
7.532000,-0.29802956
7.536000,-0.33743842
7.540000,-0.28817734
7.544000,-0.18719212
7.548000,-0.11330049
7.552000,-0.09605911
7.556000,-0.09113300
7.560000,-0.09359606
7.564000,-0.09605911
7.568000,-0.09852217
7.572000,-0.10098522
7.576000,-0.09852217
7.580000,-0.09359606
7.584000,-0.07881773
7.588000,-0.08374384
7.592000,-0.07635468
7.596000,-0.08620690
7.600000,-0.09113300
7.604000,-0.10098522
7.608000,-0.10098522
7.612000,-0.09359606
7.616000,-0.09359606
7.620000,-0.09852217
7.624000,-0.09605911
7.628000,-0.09852217
7.632000,-0.09852217
7.636000,-0.10344828
7.640000,-0.09852217
7.644000,-0.09605911
7.648000,-0.08128079
7.652000,-0.07881773
7.656000,-0.07881773
7.660000,-0.08374384
7.664000,-0.09113300
7.668000,-0.09359606
7.672000,-0.08866995
7.676000,-0.08620690
7.680000,-0.07881773
7.684000,-0.06157635
7.688000,-0.05665025
7.692000,-0.05172414
7.696000,-0.06403941
7.700000,-0.06896552
7.704000,-0.06157635
7.708000,-0.05665025
7.712000,-0.03940887
7.716000,-0.04926108
7.720000,-0.04679803
7.724000,-0.04187192
7.728000,-0.03694581
7.732000,-0.04433498
7.736000,-0.03940887
7.740000,-0.03201970
7.744000,-0.03448276
7.748000,-0.03201970
7.752000,-0.00985222
7.756000,-0.01477833
7.760000,-0.01231527
7.764000,-0.00985222
7.768000,-0.03201970
7.772000,-0.02216749
7.776000,-0.02463054
7.780000,-0.02216749
7.784000,-0.01231527
7.788000,-0.01477833
7.792000,-0.02216749
7.796000,-0.02709360
7.800000,-0.03940887
7.804000,-0.04187192
7.808000,-0.02955665
7.812000,-0.02463054
7.816000,-0.02216749
7.820000,-0.02955665
7.824000,-0.01970443
7.828000,-0.01724138
7.832000,-0.02463054
7.836000,-0.03694581
7.840000,-0.03201970
7.844000,-0.01477833
7.848000,-0.01477833
7.852000,-0.01231527
7.856000,0.00985222
7.860000,0.00246305
7.864000,0.00000000
7.868000,0.00985222
7.872000,0.00246305
7.876000,0.02955665
7.880000,0.04679803
7.884000,0.06157635
7.888000,0.07635468
7.892000,0.08128079
7.896000,0.08866995
7.900000,0.08374384
7.904000,0.10098522
7.908000,0.10591133
7.912000,0.12068966
7.916000,0.11576355
7.920000,0.11330049
7.924000,0.10344828
7.928000,0.09359606
7.932000,0.08128079
7.936000,0.07389163
7.940000,0.06650246
7.944000,0.06403941
7.948000,0.04926108
7.952000,0.04679803
7.956000,0.03201970
7.960000,0.03448276
7.964000,0.02463054
7.968000,0.01724138
7.972000,0.01970443
7.976000,0.00985222
7.980000,0.01724138
7.984000,0.01724138
7.988000,0.01231527
7.992000,0.01724138
7.996000,0.00738916
8.000000,0.00738916
8.004000,0.00738916
8.008000,0.00492611
8.012000,0.00738916
8.016000,0.00738916
8.020000,0.01477833
8.024000,0.02216749
8.028000,-0.00246305
8.032000,-0.00492611
8.036000,-0.00985222
8.040000,-0.01724138
8.044000,-0.02216749
8.048000,-0.00985222
8.052000,-0.00492611
8.056000,-0.01231527
8.060000,0.00492611
8.064000,0.00985222
8.068000,0.05172414
8.072000,0.13054187
8.076000,0.22167488
8.080000,0.31773399
8.084000,0.36206897
8.088000,0.37684729
8.092000,0.41379310
8.096000,0.45073892
8.100000,0.42118227
8.104000,0.24876847
8.108000,-0.00492611
8.112000,-0.21674877
8.116000,-0.31527094
8.120000,-0.31527094
8.124000,-0.24137931
8.128000,-0.15763547
8.132000,-0.11576355
8.136000,-0.10837438
8.140000,-0.11576355
8.144000,-0.11576355
8.148000,-0.12561576
8.152000,-0.11083744
8.156000,-0.10837438
8.160000,-0.10591133
8.164000,-0.11330049
8.168000,-0.11083744
8.172000,-0.11330049
8.176000,-0.10344828
8.180000,-0.09852217
8.184000,-0.10591133
8.188000,-0.10591133
8.192000,-0.09852217
8.196000,-0.10837438
8.200000,-0.11576355
8.204000,-0.12068966
8.208000,-0.12561576
8.212000,-0.10837438
8.216000,-0.10591133
8.220000,-0.10344828
8.224000,-0.09852217
8.228000,-0.10591133
8.232000,-0.10098522
8.236000,-0.10344828
8.240000,-0.10098522
8.244000,-0.08374384
8.248000,-0.08866995
8.252000,-0.07389163
8.256000,-0.07881773
8.260000,-0.07635468
8.264000,-0.07881773
8.268000,-0.06896552
8.272000,-0.06896552
8.276000,-0.06896552
8.280000,-0.06157635
8.284000,-0.05665025
8.288000,-0.04679803
8.292000,-0.04679803
8.296000,-0.04926108
8.300000,-0.04679803
8.304000,-0.04926108
8.308000,-0.04926108
8.312000,-0.04926108
8.316000,-0.03201970
8.320000,-0.03448276
8.324000,-0.01970443
8.328000,-0.02955665
8.332000,-0.02955665
8.336000,-0.03694581
8.340000,-0.03448276
8.344000,-0.02463054
8.348000,-0.01477833
8.352000,-0.01970443
8.356000,-0.01231527
8.360000,-0.01724138
8.364000,-0.02709360
8.368000,-0.04433498
8.372000,-0.04433498
8.376000,-0.03694581
8.380000,-0.02463054
8.384000,-0.02709360
8.388000,-0.03448276
8.392000,-0.03694581
8.396000,-0.03940887
8.400000,-0.04433498
8.404000,-0.04433498
8.408000,-0.04433498
8.412000,-0.04433498
8.416000,-0.03448276
8.420000,-0.03694581
8.424000,-0.04679803
8.428000,-0.05911330
8.432000,-0.05665025
8.436000,-0.05665025
8.440000,-0.05418719
8.444000,-0.04433498
8.448000,-0.02463054
8.452000,-0.01970443
8.456000,-0.01724138
8.460000,-0.00738916
8.464000,-0.00246305
8.468000,0.00492611
8.472000,0.00738916
8.476000,0.01970443
8.480000,0.02463054
8.484000,0.04679803
8.488000,0.05172414
8.492000,0.04679803
8.496000,0.04433498
8.500000,0.02955665
8.504000,0.01970443
8.508000,0.01231527
8.512000,0.01477833
8.516000,0.01231527
8.520000,0.01477833
8.524000,0.00738916
8.528000,-0.00985222
8.532000,-0.03201970
8.536000,-0.03694581
8.540000,-0.03201970
8.544000,-0.03448276
8.548000,-0.01970443
8.552000,-0.00985222
8.556000,-0.02955665
8.560000,-0.02216749
8.564000,-0.03694581
8.568000,-0.03694581
8.572000,-0.03448276
8.576000,-0.02463054
8.580000,-0.02709360
8.584000,-0.00985222
8.588000,-0.02216749
8.592000,-0.01231527
8.596000,-0.01724138
8.600000,-0.02955665
8.604000,-0.02955665
8.608000,-0.03201970
8.612000,-0.02216749
8.616000,-0.01724138
8.620000,-0.01970443
8.624000,-0.01477833
8.628000,-0.01724138
8.632000,-0.02709360
8.636000,-0.01477833
8.640000,-0.00246305
8.644000,0.02463054
8.648000,0.06650246
8.652000,0.15763547
8.656000,0.24630542
8.660000,0.33743842
8.664000,0.35960591
8.668000,0.36945813
8.672000,0.39655172
8.676000,0.44334975
8.680000,0.44088670
8.684000,0.33251232
8.688000,0.09113300
8.692000,-0.14039409
8.696000,-0.27339901
8.700000,-0.30541872
8.704000,-0.23891626
8.708000,-0.15517241
8.712000,-0.10837438
8.716000,-0.07389163
8.720000,-0.08128079
8.724000,-0.07881773
8.728000,-0.08866995
8.732000,-0.07881773
8.736000,-0.09359606
8.740000,-0.09113300
8.744000,-0.09113300
8.748000,-0.08128079
8.752000,-0.07389163
8.756000,-0.07389163
8.760000,-0.07635468
8.764000,-0.07881773
8.768000,-0.09113300
8.772000,-0.08374384
8.776000,-0.08374384
8.780000,-0.07142857
8.784000,-0.07142857
8.788000,-0.07635468
8.792000,-0.07881773
8.796000,-0.08620690
8.800000,-0.08866995
8.804000,-0.09852217
8.808000,-0.09605911
8.812000,-0.08128079
8.816000,-0.06896552
8.820000,-0.06896552
8.824000,-0.06896552
8.828000,-0.06896552
8.832000,-0.07635468
8.836000,-0.08374384
8.840000,-0.07635468
8.844000,-0.06896552
8.848000,-0.06650246
8.852000,-0.04926108
8.856000,-0.05665025
8.860000,-0.04433498
8.864000,-0.05665025
8.868000,-0.06157635
8.872000,-0.05665025
8.876000,-0.04679803
8.880000,-0.03448276
8.884000,-0.02463054
8.888000,-0.02955665
8.892000,-0.02709360
8.896000,-0.03940887
8.900000,-0.05172414
8.904000,-0.03448276
8.908000,-0.03201970
8.912000,-0.03448276
8.916000,-0.03201970
8.920000,-0.02463054
8.924000,-0.01970443
8.928000,-0.03201970
8.932000,-0.02709360
8.936000,-0.02709360
8.940000,-0.01970443
8.944000,-0.02709360
8.948000,-0.00738916
8.952000,-0.00492611
8.956000,-0.00246305
8.960000,0.00000000
8.964000,0.01231527
8.968000,0.04433498
8.972000,0.07635468
8.976000,0.12068966
8.980000,0.19950739
8.984000,0.27586207
8.988000,0.36206897
8.992000,0.47783251
8.996000,0.58374384
9.000000,0.70443350
9.004000,0.81773399
9.008000,0.89655172
9.012000,0.94581281
9.016000,0.96798030
9.020000,0.94827586
9.024000,0.91379310
9.028000,0.83990148
9.032000,0.71428571
9.036000,0.56157635
9.040000,0.33743842
9.044000,0.03694581
9.048000,-0.23645320
9.052000,-0.39901478
9.056000,-0.42364532
9.060000,-0.35714286
9.064000,-0.25369458
9.068000,-0.16009852
9.072000,-0.10591133
9.076000,-0.11083744
9.080000,-0.13300493
9.084000,-0.18226601
9.088000,-0.21921182
9.092000,-0.24384236
9.096000,-0.27832512
9.100000,-0.30049261
9.104000,-0.31527094
9.108000,-0.31034483
9.112000,-0.29310345
9.116000,-0.26354680
9.120000,-0.24876847
9.124000,-0.24137931
9.128000,-0.24137931
9.132000,-0.25862069
9.136000,-0.26354680
9.140000,-0.27093596
9.144000,-0.27093596
9.148000,-0.27339901
9.152000,-0.27586207
9.156000,-0.28571429
9.160000,-0.29310345
9.164000,-0.30788177
9.168000,-0.31280788
9.172000,-0.31527094
9.176000,-0.33004926
9.180000,-0.31034483
9.184000,-0.31773399
9.188000,-0.31034483
9.192000,-0.31527094
9.196000,-0.31527094
9.200000,-0.31034483
9.204000,-0.31034483
9.208000,-0.30788177
9.212000,-0.28325123
9.216000,-0.26847291
9.220000,-0.24630542
9.224000,-0.22906404
9.228000,-0.22660099
9.232000,-0.21182266
9.236000,-0.19211823
9.240000,-0.16502463
9.244000,-0.15270936
9.248000,-0.12068966
9.252000,-0.09605911
9.256000,-0.07881773
9.260000,-0.05665025
9.264000,-0.05172414
9.268000,-0.04926108
9.272000,-0.03940887
9.276000,-0.04187192
9.280000,-0.03694581
9.284000,-0.01970443
9.288000,-0.01477833
9.292000,-0.01724138
9.296000,-0.02216749
9.300000,-0.03201970
9.304000,-0.03201970
9.308000,-0.02216749
9.312000,-0.02709360
9.316000,-0.02216749
9.320000,-0.02216749
9.324000,-0.01970443
9.328000,-0.02709360
9.332000,-0.02709360
9.336000,-0.03940887
9.340000,-0.03201970
9.344000,-0.04433498
9.348000,-0.04187192
9.352000,-0.03448276
9.356000,-0.02709360
9.360000,-0.02955665
9.364000,-0.03448276
9.368000,-0.03694581
9.372000,-0.03940887
9.376000,-0.03940887
9.380000,-0.03694581
9.384000,-0.02709360
9.388000,-0.01724138
9.392000,-0.02709360
9.396000,-0.02955665
9.400000,-0.04433498
9.404000,-0.03448276
9.408000,-0.02709360
9.412000,-0.02463054
9.416000,-0.03201970
9.420000,-0.03448276
9.424000,-0.02463054
9.428000,-0.02709360
9.432000,-0.03201970
9.436000,-0.03448276
9.440000,-0.03694581
9.444000,-0.03448276
9.448000,-0.03201970
9.452000,-0.01970443
9.456000,-0.02709360
9.460000,-0.02709360
9.464000,-0.03448276
9.468000,-0.04926108
9.472000,-0.03940887
9.476000,-0.03448276
9.480000,-0.02955665
9.484000,-0.02955665
9.488000,-0.02955665
9.492000,-0.03694581
9.496000,-0.04187192
9.500000,-0.04679803
9.504000,-0.04187192
9.508000,-0.02955665
9.512000,-0.03201970
9.516000,-0.02463054
9.520000,-0.01970443
9.524000,-0.02463054
9.528000,-0.02955665
9.532000,-0.03448276
9.536000,-0.04433498
9.540000,-0.03694581
9.544000,-0.04433498
9.548000,-0.03448276
9.552000,-0.02955665
9.556000,-0.03448276
9.560000,-0.03940887
9.564000,-0.03940887
9.568000,-0.04679803
9.572000,-0.05418719
9.576000,-0.04926108
9.580000,-0.03694581
9.584000,-0.03694581
9.588000,-0.02709360
9.592000,-0.01970443
9.596000,-0.02216749
9.600000,-0.02463054
9.604000,-0.02955665
9.608000,-0.02709360
9.612000,-0.02216749
9.616000,-0.00492611
9.620000,0.00246305
9.624000,0.01231527
9.628000,0.01231527
9.632000,0.00246305
9.636000,0.01231527
9.640000,0.00000000
9.644000,0.00738916
9.648000,0.00000000
9.652000,-0.00246305
9.656000,-0.00985222
9.660000,-0.00492611
9.664000,-0.02463054
9.668000,-0.03201970
9.672000,-0.05418719
9.676000,-0.05665025
9.680000,-0.06403941
9.684000,-0.05665025
9.688000,-0.05418719
9.692000,-0.05172414
9.696000,-0.05418719
9.700000,-0.06157635
9.704000,-0.06896552
9.708000,-0.06896552
9.712000,-0.05911330
9.716000,-0.06403941
9.720000,-0.04679803
9.724000,-0.06403941
9.728000,-0.05911330
9.732000,-0.05911330
9.736000,-0.06403941
9.740000,-0.06650246
9.744000,-0.06650246
9.748000,-0.04926108
9.752000,-0.05172414
9.756000,-0.04926108
9.760000,-0.04679803
9.764000,-0.06403941
9.768000,-0.05418719
9.772000,-0.04926108
9.776000,-0.03201970
9.780000,-0.00985222
9.784000,0.01231527
9.788000,0.05665025
9.792000,0.13546798
9.796000,0.21428571
9.800000,0.27093596
9.804000,0.27339901
9.808000,0.27339901
9.812000,0.31034483
9.816000,0.33990148
9.820000,0.31527094
9.824000,0.16256158
9.828000,-0.06403941
9.832000,-0.24137931
9.836000,-0.34236453
9.840000,-0.32758621
9.844000,-0.23399015
9.848000,-0.16502463
9.852000,-0.13793103
9.856000,-0.12807882
9.860000,-0.12068966
9.864000,-0.13546798
9.868000,-0.14778325
9.872000,-0.13793103
9.876000,-0.13546798
9.880000,-0.12068966
9.884000,-0.12807882
9.888000,-0.13054187
9.892000,-0.12807882
9.896000,-0.13300493
9.900000,-0.14778325
9.904000,-0.14532020
9.908000,-0.14532020
9.912000,-0.13300493
9.916000,-0.13300493
9.920000,-0.13793103
9.924000,-0.13300493
9.928000,-0.13546798
9.932000,-0.14532020
9.936000,-0.13300493
9.940000,-0.13300493
9.944000,-0.13300493
9.948000,-0.14039409
9.952000,-0.11576355
9.956000,-0.12561576
9.960000,-0.13546798
9.964000,-0.15517241
9.968000,-0.13793103
9.972000,-0.13054187
9.976000,-0.12561576
9.980000,-0.12807882
9.984000,-0.13300493
9.988000,-0.12068966
9.992000,-0.12807882
9.996000,-0.13793103
10.000000,-0.13546798
10.004000,-0.14532020
10.008000,-0.15517241
10.012000,-0.15024631
10.016000,-0.15763547
10.020000,-0.14778325
10.024000,-0.14532020
10.028000,-0.15763547
10.032000,-0.16995074
10.036000,-0.16009852
10.040000,-0.16502463
10.044000,-0.16502463
10.048000,-0.15763547
10.052000,-0.15763547
10.056000,-0.15270936
10.060000,-0.14778325
10.064000,-0.15763547
10.068000,-0.14532020
10.072000,-0.16256158
10.076000,-0.15517241
10.080000,-0.13054187
10.084000,-0.11822660
10.088000,-0.10591133
10.092000,-0.11330049
10.096000,-0.11822660
10.100000,-0.12315271
10.104000,-0.13546798
10.108000,-0.11822660
10.112000,-0.11083744
10.116000,-0.11576355
10.120000,-0.10344828
10.124000,-0.10837438
10.128000,-0.10591133
10.132000,-0.11576355
10.136000,-0.12068966
10.140000,-0.11330049
10.144000,-0.11576355
10.148000,-0.10344828
10.152000,-0.09852217
10.156000,-0.08620690
10.160000,-0.09359606
10.164000,-0.10098522
10.168000,-0.09359606
10.172000,-0.08374384
10.176000,-0.07389163
10.180000,-0.06403941
10.184000,-0.05172414
10.188000,-0.03448276
10.192000,-0.01970443
10.196000,-0.02216749
10.200000,-0.01477833
10.204000,-0.01477833
10.208000,-0.02463054
10.212000,-0.01970443
10.216000,-0.01231527
10.220000,0.00000000
10.224000,-0.00246305
10.228000,-0.00246305
10.232000,-0.02463054
10.236000,-0.02955665
10.240000,-0.05665025
10.244000,-0.03201970
10.248000,-0.02463054
10.252000,-0.02709360
10.256000,-0.03201970
10.260000,-0.03940887
10.264000,-0.03448276
10.268000,-0.03694581
10.272000,-0.03694581
10.276000,-0.03694581
10.280000,-0.03201970
10.284000,-0.01477833
10.288000,-0.02216749
10.292000,-0.01970443
10.296000,-0.02709360
10.300000,-0.02955665
10.304000,-0.01724138
10.308000,-0.01477833
10.312000,-0.02463054
10.316000,-0.00492611
10.320000,-0.00492611
10.324000,0.00246305
10.328000,0.00000000
10.332000,0.00246305
10.336000,0.00985222
10.340000,0.02463054
10.344000,0.06157635
10.348000,0.10837438
10.352000,0.18965517
10.356000,0.29802956
10.360000,0.36453202
10.364000,0.37684729
10.368000,0.41379310
10.372000,0.44827586
10.376000,0.48029557
10.380000,0.40640394
10.384000,0.20935961
10.388000,-0.04187192
10.392000,-0.21921182
10.396000,-0.26847291
10.400000,-0.21674877
10.404000,-0.13793103
10.408000,-0.05911330
10.412000,-0.02709360
10.416000,-0.02955665
10.420000,-0.02955665
10.424000,-0.02955665
10.428000,-0.04433498
10.432000,-0.03940887
10.436000,-0.05418719
10.440000,-0.03940887
10.444000,-0.02955665
10.448000,-0.04187192
10.452000,-0.03694581
10.456000,-0.03694581
10.460000,-0.04926108
10.464000,-0.05418719
10.468000,-0.05665025
10.472000,-0.06157635
10.476000,-0.05418719
10.480000,-0.04679803
10.484000,-0.04187192
10.488000,-0.04926108
10.492000,-0.04433498
10.496000,-0.05665025
10.500000,-0.05911330
10.504000,-0.05911330
10.508000,-0.04679803
10.512000,-0.03940887
10.516000,-0.03201970
10.520000,-0.03201970
10.524000,-0.03201970
10.528000,-0.03694581
10.532000,-0.03940887
10.536000,-0.03201970
10.540000,-0.02709360
10.544000,-0.01477833
10.548000,-0.00738916
10.552000,-0.00492611
10.556000,0.00000000
10.560000,0.00000000
10.564000,-0.00246305
10.568000,-0.00246305
10.572000,0.00000000
10.576000,0.00492611
10.580000,0.00985222
10.584000,0.01477833
10.588000,0.01477833
10.592000,0.01724138
10.596000,0.01231527
10.600000,0.00738916
10.604000,0.00985222
10.608000,0.00985222
10.612000,0.01970443
10.616000,0.00985222
10.620000,0.01231527
10.624000,0.00246305
10.628000,-0.01231527
10.632000,-0.00985222
10.636000,-0.00246305
10.640000,-0.01477833
10.644000,-0.00492611
10.648000,0.00000000
10.652000,-0.00492611
10.656000,0.00492611
10.660000,-0.00738916
10.664000,-0.00738916
10.668000,-0.01477833
10.672000,-0.00985222
10.676000,0.00000000
10.680000,0.00246305
10.684000,0.01970443
10.688000,0.01231527
10.692000,0.02709360
10.696000,0.02216749
10.700000,0.03940887
10.704000,0.03448276
10.708000,0.04433498
10.712000,0.06403941
10.716000,0.06403941
10.720000,0.07635468
10.724000,0.08866995
10.728000,0.09359606
10.732000,0.10344828
10.736000,0.10591133
10.740000,0.11822660
10.744000,0.13300493
10.748000,0.14285714
10.752000,0.14778325
10.756000,0.15517241
10.760000,0.14285714
10.764000,0.12561576
10.768000,0.11822660
10.772000,0.11083744
10.776000,0.11330049
10.780000,0.11330049
10.784000,0.10837438
10.788000,0.09605911
10.792000,0.07635468
10.796000,0.06157635
10.800000,0.05172414
10.804000,0.05172414
10.808000,0.05172414
10.812000,0.06650246
10.816000,0.06403941
10.820000,0.07635468
10.824000,0.05665025
10.828000,0.04433498
10.832000,0.03448276
10.836000,0.03448276
10.840000,0.03448276
10.844000,0.03940887
10.848000,0.03940887
10.852000,0.03694581
10.856000,0.03694581
10.860000,0.02216749
10.864000,0.01724138
10.868000,0.01724138
10.872000,0.02216749
10.876000,0.00985222
10.880000,0.02463054
10.884000,0.03448276
10.888000,0.01970443
10.892000,0.02216749
10.896000,0.01724138
10.900000,0.02709360
10.904000,0.03940887
10.908000,0.07389163
10.912000,0.15517241
10.916000,0.26108374
10.920000,0.34975369
10.924000,0.38669951
10.928000,0.40147783
10.932000,0.42118227
10.936000,0.46551724
10.940000,0.48029557
10.944000,0.37438424
10.948000,0.16748768
10.952000,-0.08128079
10.956000,-0.25369458
10.960000,-0.29802956
10.964000,-0.25369458
10.968000,-0.17487685
10.972000,-0.12068966
10.976000,-0.07635468
10.980000,-0.06896552
10.984000,-0.07389163
10.988000,-0.08128079
10.992000,-0.07635468
10.996000,-0.08374384
11.000000,-0.08620690
11.004000,-0.08620690
11.008000,-0.06896552
11.012000,-0.06896552
11.016000,-0.06403941
11.020000,-0.06403941
11.024000,-0.06896552
11.028000,-0.07635468
11.032000,-0.07389163
11.036000,-0.08374384
11.040000,-0.07389163
11.044000,-0.07389163
11.048000,-0.06896552
11.052000,-0.05911330
11.056000,-0.06650246
11.060000,-0.05911330
11.064000,-0.06650246
11.068000,-0.06157635
11.072000,-0.06157635
11.076000,-0.04679803
11.080000,-0.04926108
11.084000,-0.04187192
11.088000,-0.04679803
11.092000,-0.03448276
11.096000,-0.05418719
11.100000,-0.03940887
11.104000,-0.04926108
11.108000,-0.03448276
11.112000,-0.03201970
11.116000,-0.02463054
11.120000,-0.01477833
11.124000,-0.01477833
11.128000,-0.01477833
11.132000,-0.00985222
11.136000,-0.00985222
11.140000,-0.00492611
11.144000,0.00492611
11.148000,0.01231527
11.152000,0.01724138
11.156000,0.00985222
11.160000,0.01477833
11.164000,0.00985222
11.168000,0.01724138
11.172000,0.00246305
11.176000,0.02216749
11.180000,0.02709360
11.184000,0.03694581
11.188000,0.04433498
11.192000,0.03201970
11.196000,0.02216749
11.200000,0.02463054
11.204000,0.00492611
11.208000,0.01724138
11.212000,0.02709360
11.216000,0.02955665
11.220000,0.03448276
11.224000,0.02709360
11.228000,0.01477833
11.232000,0.01477833
11.236000,0.00000000
11.240000,0.00246305
11.244000,0.00492611
11.248000,0.01231527
11.252000,0.01231527
11.256000,0.02216749
11.260000,0.00738916
11.264000,0.00246305
11.268000,-0.00738916
11.272000,-0.00246305
11.276000,0.00738916
11.280000,0.01477833
11.284000,0.02709360
11.288000,0.02709360
11.292000,0.02709360
11.296000,0.03448276
11.300000,0.04187192
11.304000,0.04433498
11.308000,0.07389163
11.312000,0.07635468
11.316000,0.10591133
11.320000,0.10837438
11.324000,0.10591133
11.328000,0.10837438
11.332000,0.08620690
11.336000,0.08866995
11.340000,0.08374384
11.344000,0.08374384
11.348000,0.08128079
11.352000,0.06896552
11.356000,0.07635468
11.360000,0.05418719
11.364000,0.02955665
11.368000,0.02709360
11.372000,0.01231527
11.376000,0.02463054
11.380000,0.02955665
11.384000,0.03201970
11.388000,0.03694581
11.392000,0.01724138
11.396000,0.00246305
11.400000,0.00246305
11.404000,-0.00738916
11.408000,0.00492611
11.412000,0.00985222
11.416000,0.01477833
11.420000,0.00738916
11.424000,0.01231527
11.428000,0.00000000
11.432000,-0.01231527
11.436000,-0.01231527
11.440000,-0.00738916
11.444000,-0.00246305
11.448000,0.00492611
11.452000,-0.00492611
11.456000,0.00246305
11.460000,0.00985222
11.464000,0.00000000
11.468000,-0.00246305
11.472000,-0.01231527
11.476000,0.00738916
11.480000,0.03448276
11.484000,0.06157635
11.488000,0.11822660
11.492000,0.20689655
11.496000,0.30541872
11.500000,0.36453202
11.504000,0.38423645
11.508000,0.40394089
11.512000,0.44334975
11.516000,0.47290640
11.520000,0.39901478
11.524000,0.17980296
11.528000,-0.07881773
11.532000,-0.25862069
11.536000,-0.30295567
11.540000,-0.24876847
11.544000,-0.16995074
11.548000,-0.10344828
11.552000,-0.07389163
11.556000,-0.07635468
11.560000,-0.07389163
11.564000,-0.09113300
11.568000,-0.09113300
11.572000,-0.08128079
11.576000,-0.07881773
11.580000,-0.07881773
11.584000,-0.06650246
11.588000,-0.07389163
11.592000,-0.06157635
11.596000,-0.07635468
11.600000,-0.08374384
11.604000,-0.10344828
11.608000,-0.09852217
11.612000,-0.08374384
11.616000,-0.08128079
11.620000,-0.08374384
11.624000,-0.08374384
11.628000,-0.08374384
11.632000,-0.10098522
11.636000,-0.09359606
11.640000,-0.09113300
11.644000,-0.07635468
11.648000,-0.07389163
11.652000,-0.07635468
11.656000,-0.07142857
11.660000,-0.07142857
11.664000,-0.07635468
11.668000,-0.08128079
11.672000,-0.07635468
11.676000,-0.07389163
11.680000,-0.05418719
11.684000,-0.06403941
11.688000,-0.05665025
11.692000,-0.04679803
11.696000,-0.05418719
11.700000,-0.04433498
11.704000,-0.04187192
11.708000,-0.04433498
11.712000,-0.04926108
11.716000,-0.03448276
11.720000,-0.02955665
11.724000,-0.02463054
11.728000,-0.03201970
11.732000,-0.03694581
11.736000,-0.03940887
11.740000,-0.02955665
11.744000,-0.02216749
11.748000,-0.01724138
11.752000,-0.01477833
11.756000,-0.01231527
11.760000,-0.01477833
11.764000,-0.02463054
11.768000,-0.01970443
11.772000,-0.02709360
11.776000,-0.03201970
11.780000,-0.01970443
11.784000,-0.01477833
11.788000,-0.01970443
11.792000,-0.02216749
11.796000,-0.01231527
11.800000,-0.00985222
11.804000,0.00492611
11.808000,0.03201970
11.812000,0.05911330
11.816000,0.10591133
11.820000,0.17241379
11.824000,0.25369458
11.828000,0.33004926
11.832000,0.41625616
11.836000,0.53201970
11.840000,0.66256158
11.844000,0.78817734
11.848000,0.87438424
11.852000,0.92610837
11.856000,0.95320197
11.860000,0.94088670
11.864000,0.89655172
11.868000,0.82019704
11.872000,0.72906404
11.876000,0.60098522
11.880000,0.42857143
11.884000,0.16748768
11.888000,-0.12068966
11.892000,-0.35467980
11.896000,-0.45320197
11.900000,-0.44088670
11.904000,-0.33497537
11.908000,-0.20935961
11.912000,-0.14285714
11.916000,-0.12807882
11.920000,-0.16009852
11.924000,-0.19458128
11.928000,-0.24876847
11.932000,-0.28078818
11.936000,-0.31527094
11.940000,-0.33004926
11.944000,-0.33497537
11.948000,-0.33004926
11.952000,-0.33743842
11.956000,-0.34236453
11.960000,-0.33743842
11.964000,-0.32758621
11.968000,-0.30541872
11.972000,-0.30049261
11.976000,-0.30049261
11.980000,-0.31034483
11.984000,-0.30295567
11.988000,-0.31773399
11.992000,-0.32266010
11.996000,-0.33497537
12.000000,-0.35221675
12.004000,-0.35221675
12.008000,-0.35467980
12.012000,-0.35960591
12.016000,-0.35467980
12.020000,-0.36699507
12.024000,-0.37931034
12.028000,-0.37438424
12.032000,-0.38423645
12.036000,-0.38423645
12.040000,-0.39408867
12.044000,-0.37438424
12.048000,-0.36945813
12.052000,-0.36206897
12.056000,-0.36206897
12.060000,-0.35467980
12.064000,-0.34729064
12.068000,-0.33743842
12.072000,-0.32019704
12.076000,-0.28817734
12.080000,-0.26600985
12.084000,-0.24137931
12.088000,-0.20935961
12.092000,-0.20197044
12.096000,-0.18472906
12.100000,-0.17487685
12.104000,-0.16009852
12.108000,-0.13546798
12.112000,-0.11330049
12.116000,-0.11083744
12.120000,-0.09852217
12.124000,-0.08866995
12.128000,-0.09113300
12.132000,-0.08374384
12.136000,-0.08620690
12.140000,-0.08866995
12.144000,-0.07635468
12.148000,-0.07389163
12.152000,-0.06896552
12.156000,-0.07635468
12.160000,-0.08374384
12.164000,-0.09359606
12.168000,-0.10837438
12.172000,-0.10098522
12.176000,-0.10098522
12.180000,-0.09359606
12.184000,-0.09852217
12.188000,-0.09605911
12.192000,-0.09605911
12.196000,-0.11330049
12.200000,-0.12068966
12.204000,-0.12068966
12.208000,-0.11083744
12.212000,-0.09852217
12.216000,-0.09852217
12.220000,-0.09359606
12.224000,-0.09605911
12.228000,-0.10837438
12.232000,-0.09605911
12.236000,-0.09605911
12.240000,-0.09852217
12.244000,-0.10098522
12.248000,-0.07881773
12.252000,-0.07881773
12.256000,-0.08866995
12.260000,-0.09359606
12.264000,-0.10591133
12.268000,-0.09359606
12.272000,-0.09852217
12.276000,-0.09113300
12.280000,-0.08620690
12.284000,-0.09359606
12.288000,-0.08128079
12.292000,-0.07881773
12.296000,-0.08866995
12.300000,-0.08374384
12.304000,-0.10344828
12.308000,-0.08866995
12.312000,-0.07881773
12.316000,-0.07389163
12.320000,-0.08374384
12.324000,-0.06896552
12.328000,-0.08374384
12.332000,-0.09605911
12.336000,-0.09852217
12.340000,-0.08866995
12.344000,-0.08866995
12.348000,-0.08128079
12.352000,-0.07881773
12.356000,-0.07635468
12.360000,-0.08374384
12.364000,-0.09113300
12.368000,-0.09852217
12.372000,-0.09359606
12.376000,-0.08866995
12.380000,-0.10098522
12.384000,-0.08620690
12.388000,-0.09113300
12.392000,-0.08866995
12.396000,-0.10591133
12.400000,-0.10837438
12.404000,-0.10344828
12.408000,-0.09605911
12.412000,-0.09605911
12.416000,-0.08620690
12.420000,-0.08374384
12.424000,-0.08128079
12.428000,-0.10098522
12.432000,-0.10344828
12.436000,-0.10098522
12.440000,-0.09605911
12.444000,-0.09359606
12.448000,-0.07881773
12.452000,-0.07635468
12.456000,-0.07881773
12.460000,-0.08374384
12.464000,-0.09605911
12.468000,-0.08620690
12.472000,-0.08620690
12.476000,-0.05665025
12.480000,-0.04679803
12.484000,-0.03940887
12.488000,-0.03201970
12.492000,-0.03201970
12.496000,-0.02709360
12.500000,-0.02216749
12.504000,-0.03694581
12.508000,-0.03201970
12.512000,-0.04679803
12.516000,-0.04926108
12.520000,-0.05665025
12.524000,-0.05665025
12.528000,-0.06896552
12.532000,-0.08620690
12.536000,-0.09359606
12.540000,-0.10591133
12.544000,-0.10837438
12.548000,-0.09605911
12.552000,-0.09605911
12.556000,-0.09359606
12.560000,-0.10098522
12.564000,-0.09852217
12.568000,-0.11576355
12.572000,-0.10591133
12.576000,-0.10591133
12.580000,-0.10344828
12.584000,-0.08866995
12.588000,-0.09605911
12.592000,-0.09113300
12.596000,-0.11330049
12.600000,-0.09852217
12.604000,-0.10591133
12.608000,-0.09605911
12.612000,-0.09852217
12.616000,-0.09852217
12.620000,-0.08620690
12.624000,-0.08128079
12.628000,-0.08128079
12.632000,-0.07881773
12.636000,-0.06650246
12.640000,-0.06157635
12.644000,-0.03448276
12.648000,0.01477833
12.652000,0.10344828
12.656000,0.19458128
12.660000,0.29064039
12.664000,0.31280788
12.668000,0.32758621
12.672000,0.34236453
12.676000,0.37931034
12.680000,0.33743842
12.684000,0.16502463
12.688000,-0.06896552
12.692000,-0.28078818
12.696000,-0.36945813
12.700000,-0.35221675
12.704000,-0.28078818
12.708000,-0.20935961
12.712000,-0.14778325
12.716000,-0.13793103
12.720000,-0.14039409
12.724000,-0.14532020
12.728000,-0.15517241
12.732000,-0.16009852
12.736000,-0.15763547
12.740000,-0.15270936
12.744000,-0.15270936
12.748000,-0.14285714
12.752000,-0.16009852
12.756000,-0.15024631
12.760000,-0.15763547
12.764000,-0.15763547
12.768000,-0.15517241
12.772000,-0.16009852
12.776000,-0.15763547
12.780000,-0.14285714
12.784000,-0.14778325
12.788000,-0.14778325
12.792000,-0.14532020
12.796000,-0.15763547
12.800000,-0.15763547
12.804000,-0.15270936
12.808000,-0.15517241
12.812000,-0.15517241
12.816000,-0.14778325
12.820000,-0.15270936
12.824000,-0.13300493
12.828000,-0.14778325
12.832000,-0.15024631
12.836000,-0.15270936
12.840000,-0.16748768
12.844000,-0.14532020
12.848000,-0.14285714
12.852000,-0.13793103
12.856000,-0.14285714
12.860000,-0.14039409
12.864000,-0.16256158
12.868000,-0.16256158
12.872000,-0.17241379
12.876000,-0.17487685
12.880000,-0.16748768
12.884000,-0.15517241
12.888000,-0.16995074
12.892000,-0.18719212
12.896000,-0.18226601
12.900000,-0.18472906
12.904000,-0.19211823
12.908000,-0.19211823
12.912000,-0.18472906
12.916000,-0.17487685
12.920000,-0.18226601
12.924000,-0.17980296
12.928000,-0.17487685
12.932000,-0.16995074
12.936000,-0.17241379
12.940000,-0.15763547
12.944000,-0.14778325
12.948000,-0.14285714
12.952000,-0.13546798
12.956000,-0.14039409
12.960000,-0.13546798
12.964000,-0.15270936
12.968000,-0.15024631
12.972000,-0.15024631
12.976000,-0.13546798
12.980000,-0.14285714
12.984000,-0.13793103
12.988000,-0.13793103
12.992000,-0.14778325
12.996000,-0.15024631
13.000000,-0.15024631
13.004000,-0.15270936
13.008000,-0.14039409
13.012000,-0.13793103
13.016000,-0.12807882
13.020000,-0.12315271
13.024000,-0.11822660
13.028000,-0.12561576
13.032000,-0.11822660
13.036000,-0.11576355
13.040000,-0.10344828
13.044000,-0.08128079
13.048000,-0.06157635
13.052000,-0.05418719
13.056000,-0.03201970
13.060000,-0.03694581
13.064000,-0.03448276
13.068000,-0.03448276
13.072000,-0.04187192
13.076000,-0.04679803
13.080000,-0.04926108
13.084000,-0.02709360
13.088000,-0.03201970
13.092000,-0.03940887
13.096000,-0.05418719
13.100000,-0.06650246
13.104000,-0.06896552
13.108000,-0.07389163
13.112000,-0.04926108
13.116000,-0.05418719
13.120000,-0.05172414
13.124000,-0.03940887
13.128000,-0.05172414
13.132000,-0.06157635
13.136000,-0.06896552
13.140000,-0.07142857
13.144000,-0.05172414
13.148000,-0.03940887
13.152000,-0.05172414
13.156000,-0.04926108
13.160000,-0.06157635
13.164000,-0.05172414
13.168000,-0.05418719
13.172000,-0.05172414
13.176000,-0.05172414
13.180000,-0.03940887
13.184000,-0.03448276
13.188000,-0.03201970
13.192000,-0.04187192
13.196000,-0.04433498
13.200000,-0.02709360
13.204000,-0.01231527
13.208000,0.01231527
13.212000,0.07881773
13.216000,0.17733990
13.220000,0.28325123
13.224000,0.35714286
13.228000,0.38916256
13.232000,0.41379310
13.236000,0.45566502
13.240000,0.46305419
13.244000,0.35960591
13.248000,0.13054187
13.252000,-0.13054187
13.256000,-0.29064039
13.260000,-0.30049261
13.264000,-0.24137931
13.268000,-0.14532020
13.272000,-0.09359606
13.276000,-0.06650246
13.280000,-0.06650246
13.284000,-0.06650246
13.288000,-0.07881773
13.292000,-0.08620690
13.296000,-0.10098522
13.300000,-0.09605911
13.304000,-0.09359606
13.308000,-0.09113300
13.312000,-0.08866995
13.316000,-0.08866995
13.320000,-0.09359606
13.324000,-0.08866995
13.328000,-0.09605911
13.332000,-0.10344828
13.336000,-0.09852217
13.340000,-0.09113300
13.344000,-0.09113300
13.348000,-0.09605911
13.352000,-0.08374384
13.356000,-0.09359606
13.360000,-0.09605911
13.364000,-0.10344828
13.368000,-0.09852217
13.372000,-0.10591133
13.376000,-0.09852217
13.380000,-0.07142857
13.384000,-0.08374384
13.388000,-0.07635468
13.392000,-0.07389163
13.396000,-0.07881773
13.400000,-0.08128079
13.404000,-0.08128079
13.408000,-0.06896552
13.412000,-0.05665025
13.416000,-0.04926108
13.420000,-0.03694581
13.424000,-0.03940887
13.428000,-0.04433498
13.432000,-0.04926108
13.436000,-0.05418719
13.440000,-0.05172414
13.444000,-0.03940887
13.448000,-0.03201970
13.452000,-0.03201970
13.456000,-0.02709360
13.460000,-0.03694581
13.464000,-0.04187192
13.468000,-0.03448276
13.472000,-0.04433498
13.476000,-0.03448276
13.480000,-0.03201970
13.484000,-0.03448276
13.488000,-0.03201970
13.492000,-0.04433498
13.496000,-0.05172414
13.500000,-0.06403941
13.504000,-0.06650246
13.508000,-0.07881773
13.512000,-0.05665025
13.516000,-0.05172414
13.520000,-0.05911330
13.524000,-0.05418719
13.528000,-0.05172414
13.532000,-0.06650246
13.536000,-0.05665025
13.540000,-0.05911330
13.544000,-0.04679803
13.548000,-0.03201970
13.552000,-0.02709360
13.556000,-0.03201970
13.560000,-0.02463054
13.564000,-0.02463054
13.568000,-0.01477833
13.572000,-0.00492611
13.576000,0.00246305
13.580000,0.02463054
13.584000,0.03201970
13.588000,0.03448276
13.592000,0.05418719
13.596000,0.06157635
13.600000,0.06403941
13.604000,0.07389163
13.608000,0.09359606
13.612000,0.09113300
13.616000,0.10344828
13.620000,0.09852217
13.624000,0.09605911
13.628000,0.07881773
13.632000,0.05911330
13.636000,0.05418719
13.640000,0.05911330
13.644000,0.05418719
13.648000,0.03694581
13.652000,0.02955665
13.656000,0.01724138
13.660000,0.00738916
13.664000,-0.00246305
13.668000,0.00492611
13.672000,-0.00246305
13.676000,-0.00246305
13.680000,0.00738916
13.684000,0.00492611
13.688000,0.00000000
13.692000,0.00492611
13.696000,-0.00492611
13.700000,-0.00985222
13.704000,-0.00492611
13.708000,-0.01477833
13.712000,-0.00985222
13.716000,-0.01231527
13.720000,-0.00492611
13.724000,-0.00246305
13.728000,-0.01724138
13.732000,-0.02709360
13.736000,-0.03201970
13.740000,-0.02216749
13.744000,-0.01970443
13.748000,-0.01477833
13.752000,-0.01231527
13.756000,-0.00246305
13.760000,-0.00492611
13.764000,0.01231527
13.768000,0.03201970
13.772000,0.10098522
13.776000,0.20935961
13.780000,0.30295567
13.784000,0.33990148
13.788000,0.35714286
13.792000,0.39655172
13.796000,0.43349754
13.800000,0.40640394
13.804000,0.25123153
13.808000,0.00000000
13.812000,-0.22167488
13.816000,-0.33004926
13.820000,-0.32758621
13.824000,-0.24630542
13.828000,-0.17241379
13.832000,-0.13546798
13.836000,-0.12561576
13.840000,-0.12807882
13.844000,-0.12561576
13.848000,-0.12068966
13.852000,-0.12068966
13.856000,-0.11330049
13.860000,-0.11330049
13.864000,-0.11822660
13.868000,-0.12561576
13.872000,-0.12807882
13.876000,-0.12315271
13.880000,-0.11576355
13.884000,-0.11576355
13.888000,-0.11083744
13.892000,-0.11330049
13.896000,-0.12068966
13.900000,-0.12561576
13.904000,-0.12315271
13.908000,-0.11576355
13.912000,-0.11576355
13.916000,-0.10591133
13.920000,-0.09852217
13.924000,-0.11576355
13.928000,-0.11576355
13.932000,-0.11822660
13.936000,-0.12068966
13.940000,-0.12315271
13.944000,-0.10591133
13.948000,-0.09359606
13.952000,-0.09852217
13.956000,-0.09113300
13.960000,-0.09359606
13.964000,-0.10591133
13.968000,-0.09605911
13.972000,-0.10344828
13.976000,-0.09113300
13.980000,-0.07142857
13.984000,-0.06650246
13.988000,-0.06650246
13.992000,-0.06650246
13.996000,-0.05665025
14.000000,-0.05911330
14.004000,-0.06896552
14.008000,-0.07881773
14.012000,-0.05418719
14.016000,-0.04926108
14.020000,-0.04679803
14.024000,-0.04679803
14.028000,-0.05418719
14.032000,-0.05665025
14.036000,-0.05665025
14.040000,-0.03940887
14.044000,-0.02709360
14.048000,-0.02216749
14.052000,-0.02463054
14.056000,-0.02709360
14.060000,-0.03940887
14.064000,-0.03940887
14.068000,-0.04679803
14.072000,-0.05418719
14.076000,-0.05418719
14.080000,-0.04433498
14.084000,-0.04926108
14.088000,-0.05418719
14.092000,-0.04679803
14.096000,-0.06403941
14.100000,-0.07389163
14.104000,-0.06896552
14.108000,-0.07389163
14.112000,-0.07635468
14.116000,-0.06896552
14.120000,-0.05418719
14.124000,-0.06403941
14.128000,-0.06896552
14.132000,-0.07635468
14.136000,-0.06650246
14.140000,-0.06650246
14.144000,-0.05911330
14.148000,-0.05418719
14.152000,-0.04926108
14.156000,-0.03940887
14.160000,-0.03448276
14.164000,-0.03448276
14.168000,-0.02709360
14.172000,-0.02216749
14.176000,-0.00738916
14.180000,0.00985222
14.184000,0.02216749
14.188000,0.02955665
14.192000,0.03694581
14.196000,0.02463054
14.200000,0.01724138
14.204000,0.00000000
14.208000,-0.00492611
14.212000,0.00492611
14.216000,0.00000000
14.220000,-0.00246305
14.224000,-0.01724138
14.228000,-0.03694581
14.232000,-0.04926108
14.236000,-0.06650246
14.240000,-0.05418719
14.244000,-0.04679803
14.248000,-0.04926108
14.252000,-0.04679803
14.256000,-0.04433498
14.260000,-0.06403941
14.264000,-0.06403941
14.268000,-0.06157635
14.272000,-0.06896552
14.276000,-0.06403941
14.280000,-0.06157635
14.284000,-0.05665025
14.288000,-0.04926108
14.292000,-0.05172414
14.296000,-0.05911330
14.300000,-0.07142857
14.304000,-0.07881773
14.308000,-0.06650246
14.312000,-0.06896552
14.316000,-0.05911330
14.320000,-0.04679803
14.324000,-0.04926108
14.328000,-0.05911330
14.332000,-0.04433498
14.336000,-0.04187192
14.340000,-0.02216749
14.344000,0.01724138
14.348000,0.11083744
14.352000,0.21674877
14.356000,0.29064039
14.360000,0.31280788
14.364000,0.30295567
14.368000,0.33251232
14.372000,0.34482759
14.376000,0.29064039
14.380000,0.11822660
14.384000,-0.10098522
14.388000,-0.28817734
14.392000,-0.34729064
14.396000,-0.31527094
14.400000,-0.24876847
14.404000,-0.17980296
14.408000,-0.15270936
14.412000,-0.14285714
14.416000,-0.13054187
14.420000,-0.13300493
14.424000,-0.12807882
14.428000,-0.14039409
14.432000,-0.15763547
14.436000,-0.14285714
14.440000,-0.15024631
14.444000,-0.12807882
14.448000,-0.13546798
14.452000,-0.12561576
14.456000,-0.11576355
14.460000,-0.13793103
14.464000,-0.13054187
14.468000,-0.13300493
14.472000,-0.13546798
14.476000,-0.13054187
14.480000,-0.12561576
14.484000,-0.11822660
14.488000,-0.12068966
14.492000,-0.12315271
14.496000,-0.12807882
14.500000,-0.13054187
14.504000,-0.13300493
14.508000,-0.13054187
14.512000,-0.12807882
14.516000,-0.11330049
14.520000,-0.10837438
14.524000,-0.11822660
14.528000,-0.11083744
14.532000,-0.11576355
14.536000,-0.12068966
14.540000,-0.11330049
14.544000,-0.10098522
14.548000,-0.09852217
14.552000,-0.09605911
14.556000,-0.09605911
14.560000,-0.09359606
14.564000,-0.08866995
14.568000,-0.08866995
14.572000,-0.09359606
14.576000,-0.08374384
14.580000,-0.07635468
14.584000,-0.07142857
14.588000,-0.07635468
14.592000,-0.07142857
14.596000,-0.07881773
14.600000,-0.08128079
14.604000,-0.08374384
14.608000,-0.06896552
14.612000,-0.06157635
14.616000,-0.05665025
14.620000,-0.04926108
14.624000,-0.05172414
14.628000,-0.06157635
14.632000,-0.06896552
14.636000,-0.06403941
14.640000,-0.06157635
14.644000,-0.04679803
14.648000,-0.03940887
14.652000,-0.01970443
14.656000,0.00246305
14.660000,0.03694581
14.664000,0.08866995
14.668000,0.15517241
14.672000,0.22906404
14.676000,0.31527094
14.680000,0.42610837
14.684000,0.54187192
14.688000,0.68226601
14.692000,0.80541872
14.696000,0.88177340
14.700000,0.92610837
14.704000,0.93596059
14.708000,0.91625616
14.712000,0.89162562
14.716000,0.82758621
14.720000,0.73891626
14.724000,0.62315271
14.728000,0.43103448
14.732000,0.16256158
14.736000,-0.15024631
14.740000,-0.38916256
14.744000,-0.50492611
14.748000,-0.50000000
14.752000,-0.38916256
14.756000,-0.26847291
14.760000,-0.18226601
14.764000,-0.15517241
14.768000,-0.16009852
14.772000,-0.19211823
14.776000,-0.22906404
14.780000,-0.26108374
14.784000,-0.29064039
14.788000,-0.31527094
14.792000,-0.32266010
14.796000,-0.33251232
14.800000,-0.33004926
14.804000,-0.33497537
14.808000,-0.33251232
14.812000,-0.31280788
14.816000,-0.28078818
14.820000,-0.28078818
14.824000,-0.27586207
14.828000,-0.29064039
14.832000,-0.30541872
14.836000,-0.32266010
14.840000,-0.34236453
14.844000,-0.32019704
14.848000,-0.33251232
14.852000,-0.32512315
14.856000,-0.33004926
14.860000,-0.34729064
14.864000,-0.35467980
14.868000,-0.35467980
14.872000,-0.36206897
14.876000,-0.35467980
14.880000,-0.35467980
14.884000,-0.34236453
14.888000,-0.33990148
14.892000,-0.33251232
14.896000,-0.33990148
14.900000,-0.33497537
14.904000,-0.33497537
14.908000,-0.31773399
14.912000,-0.29310345
14.916000,-0.27093596
14.920000,-0.24630542
14.924000,-0.21428571
14.928000,-0.21921182
14.932000,-0.19704433
14.936000,-0.17487685
14.940000,-0.15763547
14.944000,-0.12315271
14.948000,-0.10098522
14.952000,-0.08374384
14.956000,-0.07881773
14.960000,-0.06157635
14.964000,-0.05418719
14.968000,-0.04433498
14.972000,-0.03201970
14.976000,-0.02709360
14.980000,-0.02216749
14.984000,-0.00985222
14.988000,-0.01477833
14.992000,-0.02216749
14.996000,-0.02216749
15.000000,-0.02955665
15.004000,-0.02216749
15.008000,-0.02955665
15.012000,-0.03201970
15.016000,-0.03201970
15.020000,-0.02463054
15.024000,-0.03201970
15.028000,-0.03694581
15.032000,-0.03940887
15.036000,-0.04679803
15.040000,-0.04433498
15.044000,-0.03940887
15.048000,-0.03448276
15.052000,-0.02955665
15.056000,-0.03448276
15.060000,-0.03940887
15.064000,-0.04926108
15.068000,-0.03940887
15.072000,-0.04926108
15.076000,-0.03940887
15.080000,-0.03694581
15.084000,-0.01970443
15.088000,-0.03694581
15.092000,-0.02463054
15.096000,-0.03201970
15.100000,-0.02216749
15.104000,-0.03694581
15.108000,-0.02463054
15.112000,-0.02463054
15.116000,-0.02463054
15.120000,-0.02216749
15.124000,-0.00985222
15.128000,-0.02216749
15.132000,-0.02709360
15.136000,-0.02955665
15.140000,-0.02463054
15.144000,-0.01231527
15.148000,0.00000000
15.152000,0.00246305
15.156000,-0.01231527
15.160000,-0.01724138
15.164000,-0.02216749
15.168000,-0.01724138
15.172000,-0.02463054
15.176000,-0.02463054
15.180000,-0.00985222
15.184000,-0.01231527
15.188000,-0.00492611
15.192000,-0.00246305
15.196000,-0.00985222
15.200000,-0.01231527
15.204000,-0.02463054
15.208000,-0.01970443
15.212000,-0.02463054
15.216000,-0.00738916
15.220000,0.00000000
15.224000,-0.00492611
15.228000,-0.02216749
15.232000,-0.01970443
15.236000,-0.01970443
15.240000,-0.02709360
15.244000,-0.01970443
15.248000,-0.00492611
15.252000,0.00738916
15.256000,-0.00246305
15.260000,-0.00492611
15.264000,-0.00492611
15.268000,-0.01724138
15.272000,-0.02463054
15.276000,-0.00985222
15.280000,-0.00985222
15.284000,0.00000000
15.288000,-0.00492611
15.292000,-0.00492611
15.296000,-0.00492611
15.300000,-0.00492611
15.304000,-0.00738916
15.308000,-0.00246305
15.312000,0.01477833
15.316000,0.02955665
15.320000,0.04187192
15.324000,0.07142857
15.328000,0.05911330
15.332000,0.04926108
15.336000,0.06650246
15.340000,0.06157635
15.344000,0.06650246
15.348000,0.06157635
15.352000,0.05911330
15.356000,0.03940887
15.360000,0.03201970
15.364000,0.01477833
15.368000,0.02463054
15.372000,0.00492611
15.376000,0.00246305
15.380000,-0.00738916
15.384000,0.00000000
15.388000,-0.00492611
15.392000,0.00738916
15.396000,-0.01477833
15.400000,-0.01477833
15.404000,-0.02463054
15.408000,-0.01477833
15.412000,-0.00985222
15.416000,0.00492611
15.420000,0.00738916
15.424000,0.00000000
15.428000,-0.01231527
15.432000,-0.01231527
15.436000,-0.01724138
15.440000,-0.01231527
15.444000,-0.01231527
15.448000,-0.01477833
15.452000,0.00246305
15.456000,-0.00738916
15.460000,0.00738916
15.464000,-0.00738916
15.468000,-0.00246305
15.472000,0.00000000
15.476000,0.01970443
15.480000,0.02955665
15.484000,0.06403941
15.488000,0.12315271
15.492000,0.21921182
15.496000,0.30541872
15.500000,0.38669951
15.504000,0.41625616
15.508000,0.44088670
15.512000,0.47783251
15.516000,0.49261084
15.520000,0.41625616
15.524000,0.20935961
15.528000,-0.04926108
15.532000,-0.24384236
15.536000,-0.29556650
15.540000,-0.25123153
15.544000,-0.15763547
15.548000,-0.08866995
15.552000,-0.05665025
15.556000,-0.04187192
15.560000,-0.05665025
15.564000,-0.06896552
15.568000,-0.07635468
15.572000,-0.07635468
15.576000,-0.07389163
15.580000,-0.05665025
15.584000,-0.06157635
15.588000,-0.06157635
15.592000,-0.05911330
15.596000,-0.06896552
15.600000,-0.07635468
15.604000,-0.07635468
15.608000,-0.06403941
15.612000,-0.06896552
15.616000,-0.05911330
15.620000,-0.05665025
15.624000,-0.03940887
15.628000,-0.05665025
15.632000,-0.06403941
15.636000,-0.07142857
15.640000,-0.06650246
15.644000,-0.05665025
15.648000,-0.04926108
15.652000,-0.05418719
15.656000,-0.05665025
15.660000,-0.05418719
15.664000,-0.06157635
15.668000,-0.05911330
15.672000,-0.05911330
15.676000,-0.06403941
15.680000,-0.06157635
15.684000,-0.04187192
15.688000,-0.03940887
15.692000,-0.05665025
15.696000,-0.06403941
15.700000,-0.06403941
15.704000,-0.06650246
15.708000,-0.07142857
15.712000,-0.07635468
15.716000,-0.06403941
15.720000,-0.07142857
15.724000,-0.07389163
15.728000,-0.07142857
15.732000,-0.08620690
15.736000,-0.08374384
15.740000,-0.09852217
15.744000,-0.09852217
15.748000,-0.08866995
15.752000,-0.09852217
15.756000,-0.10098522
15.760000,-0.08620690
15.764000,-0.08620690
15.768000,-0.07635468
15.772000,-0.07142857
15.776000,-0.06896552
15.780000,-0.05665025
15.784000,-0.04679803
15.788000,-0.03448276
15.792000,-0.03940887
15.796000,-0.05172414
15.800000,-0.05172414
15.804000,-0.06157635
15.808000,-0.05418719
15.812000,-0.04679803
15.816000,-0.04433498
15.820000,-0.03694581
15.824000,-0.03940887
15.828000,-0.05418719
15.832000,-0.06157635
15.836000,-0.05911330
15.840000,-0.05911330
15.844000,-0.04926108
15.848000,-0.04433498
15.852000,-0.04433498
15.856000,-0.04926108
15.860000,-0.04433498
15.864000,-0.04926108
15.868000,-0.03940887
15.872000,-0.03940887
15.876000,-0.02463054
15.880000,-0.00985222
15.884000,0.00738916
15.888000,0.01724138
15.892000,0.01970443
15.896000,0.02463054
15.900000,0.02709360
15.904000,0.03694581
15.908000,0.02463054
15.912000,0.04187192
15.916000,0.03694581
15.920000,0.04187192
15.924000,0.03940887
15.928000,0.02955665
15.932000,0.01231527
15.936000,0.00246305
15.940000,-0.00492611
15.944000,0.00000000
15.948000,0.00738916
15.952000,0.00985222
15.956000,0.00000000
15.960000,0.00246305
15.964000,0.00985222
15.968000,0.00492611
15.972000,-0.00492611
15.976000,0.00000000
15.980000,0.00492611
15.984000,0.00000000
15.988000,0.01477833
15.992000,0.00246305
15.996000,0.00985222
16.000000,0.00000000
16.004000,0.00246305
16.008000,0.00738916
16.012000,0.01970443
16.016000,0.02463054
16.020000,0.02709360
16.024000,0.01970443
16.028000,0.00985222
16.032000,0.00985222
16.036000,0.00492611
16.040000,0.01724138
16.044000,0.03694581
16.048000,0.05172414
16.052000,0.09113300
16.056000,0.13546798
16.060000,0.22660099
16.064000,0.33251232
16.068000,0.40886700
16.072000,0.44088670
16.076000,0.47290640
16.080000,0.50738916
16.084000,0.51477833
16.088000,0.42118227
16.092000,0.19704433
16.096000,-0.04926108
16.100000,-0.20197044
16.104000,-0.24876847
16.108000,-0.18226601
16.112000,-0.09605911
16.116000,-0.03448276
16.120000,-0.01724138
16.124000,-0.00492611
16.128000,-0.01724138
16.132000,-0.03940887
16.136000,-0.03201970
16.140000,-0.03694581
16.144000,-0.01724138
16.148000,-0.01724138
16.152000,-0.00492611
16.156000,-0.01970443
16.160000,-0.02216749
16.164000,-0.03694581
16.168000,-0.02955665
16.172000,-0.03694581
16.176000,-0.03940887
16.180000,-0.02463054
16.184000,-0.02216749
16.188000,-0.02709360
16.192000,-0.01970443
16.196000,-0.02955665
16.200000,-0.03448276
16.204000,-0.03694581
16.208000,-0.04187192
16.212000,-0.03448276
16.216000,-0.02709360
16.220000,-0.01724138
16.224000,-0.01477833
16.228000,-0.01970443
16.232000,-0.02955665
16.236000,-0.01724138
16.240000,-0.02216749
16.244000,-0.02216749
16.248000,-0.00246305
16.252000,-0.00738916
16.256000,-0.00492611
16.260000,-0.00246305
16.264000,-0.00246305
16.268000,0.00246305
16.272000,-0.00492611
16.276000,-0.00246305
16.280000,0.00738916
16.284000,0.00985222
16.288000,0.01231527
16.292000,0.01724138
16.296000,0.00985222
16.300000,0.00246305
16.304000,0.00738916
16.308000,0.01477833
16.312000,0.01724138
16.316000,0.02216749
16.320000,0.02955665
16.324000,0.02955665
16.328000,0.01724138
16.332000,0.00738916
16.336000,-0.00246305
16.340000,-0.00492611
16.344000,-0.00246305
16.348000,0.00246305
16.352000,0.00985222
16.356000,-0.00492611
16.360000,-0.00985222
16.364000,-0.01231527
16.368000,-0.00985222
16.372000,-0.03448276
16.376000,-0.01477833
16.380000,-0.02955665
16.384000,-0.01724138
16.388000,-0.01970443
16.392000,-0.01231527
16.396000,-0.02463054
16.400000,-0.04926108
16.404000,-0.04926108
16.408000,-0.03940887
16.412000,-0.03694581
16.416000,-0.02216749
16.420000,-0.02216749
16.424000,-0.02463054
16.428000,-0.02216749
16.432000,-0.03448276
16.436000,-0.02463054
16.440000,-0.02216749
16.444000,-0.00492611
16.448000,0.00246305
16.452000,0.01970443
16.456000,0.01970443
16.460000,0.02709360
16.464000,0.01970443
16.468000,0.02463054
16.472000,0.02463054
16.476000,0.03694581
16.480000,0.03940887
16.484000,0.04926108
16.488000,0.02955665
16.492000,0.01724138
16.496000,0.01231527
16.500000,0.00246305
16.504000,-0.00738916
16.508000,-0.01724138
16.512000,-0.02955665
16.516000,-0.02709360
16.520000,-0.04187192
16.524000,-0.04187192
16.528000,-0.03940887
16.532000,-0.05418719
16.536000,-0.05911330
16.540000,-0.05418719
16.544000,-0.05172414
16.548000,-0.03940887
16.552000,-0.03940887
16.556000,-0.04187192
16.560000,-0.03940887
16.564000,-0.05418719
16.568000,-0.05418719
16.572000,-0.05418719
16.576000,-0.05665025
16.580000,-0.05172414
16.584000,-0.03694581
16.588000,-0.03694581
16.592000,-0.05172414
16.596000,-0.06157635
16.600000,-0.05665025
16.604000,-0.05665025
16.608000,-0.06403941
16.612000,-0.05172414
16.616000,-0.04433498
16.620000,-0.03201970
16.624000,-0.03201970
16.628000,-0.01477833
16.632000,0.01231527
16.636000,0.08128079
16.640000,0.16995074
16.644000,0.24876847
16.648000,0.31527094
16.652000,0.32266010
16.656000,0.34482759
16.660000,0.35221675
16.664000,0.33251232
16.668000,0.21674877
16.672000,0.00492611
16.676000,-0.18965517
16.680000,-0.31773399
16.684000,-0.32512315
16.688000,-0.25862069
16.692000,-0.18472906
16.696000,-0.14285714
16.700000,-0.14039409
16.704000,-0.15517241
16.708000,-0.15024631
16.712000,-0.15270936
16.716000,-0.13300493
16.720000,-0.13546798
16.724000,-0.13300493
16.728000,-0.13546798
16.732000,-0.12807882
16.736000,-0.13546798
16.740000,-0.15270936
16.744000,-0.13793103
16.748000,-0.13546798
16.752000,-0.12068966
16.756000,-0.12807882
16.760000,-0.13054187
16.764000,-0.12807882
16.768000,-0.12807882
16.772000,-0.14285714
16.776000,-0.13546798
16.780000,-0.12561576
16.784000,-0.11330049
16.788000,-0.12315271
16.792000,-0.11822660
16.796000,-0.12068966
16.800000,-0.13054187
16.804000,-0.12561576
16.808000,-0.11330049
16.812000,-0.11083744
16.816000,-0.11083744
16.820000,-0.09605911
16.824000,-0.09852217
16.828000,-0.09605911
16.832000,-0.09605911
16.836000,-0.09605911
16.840000,-0.09359606
16.844000,-0.08620690
16.848000,-0.07142857
16.852000,-0.05911330
16.856000,-0.05911330
16.860000,-0.05911330
16.864000,-0.06157635
16.868000,-0.06896552
16.872000,-0.06650246
16.876000,-0.06157635
16.880000,-0.04679803
16.884000,-0.04433498
16.888000,-0.03201970
16.892000,-0.03940887
16.896000,-0.03448276
16.900000,-0.04926108
16.904000,-0.04926108
16.908000,-0.04433498
16.912000,-0.03694581
16.916000,-0.02216749
16.920000,-0.02709360
16.924000,-0.02955665
16.928000,-0.03940887
16.932000,-0.04679803
16.936000,-0.04926108
16.940000,-0.06157635
16.944000,-0.04926108
16.948000,-0.04187192
16.952000,-0.03940887
16.956000,-0.04926108
16.960000,-0.05418719
16.964000,-0.06403941
16.968000,-0.08374384
16.972000,-0.08128079
16.976000,-0.07635468
16.980000,-0.06896552
16.984000,-0.06896552
16.988000,-0.06157635
16.992000,-0.05911330
16.996000,-0.07635468
17.000000,-0.08128079
17.004000,-0.07881773
17.008000,-0.08128079
17.012000,-0.07389163
17.016000,-0.07142857
17.020000,-0.05911330
17.024000,-0.05172414
17.028000,-0.04926108
17.032000,-0.04433498
17.036000,-0.03940887
17.040000,-0.03694581
17.044000,-0.00985222
17.048000,-0.00246305
17.052000,0.00738916
17.056000,0.01231527
17.060000,0.00985222
17.064000,0.00000000
17.068000,0.00000000
17.072000,-0.01231527
17.076000,-0.01231527
17.080000,-0.01724138
17.084000,-0.01231527
17.088000,-0.01477833
17.092000,-0.02216749
17.096000,-0.03448276
17.100000,-0.04433498
17.104000,-0.06157635
17.108000,-0.05418719
17.112000,-0.06403941
17.116000,-0.06157635
17.120000,-0.06403941
17.124000,-0.05911330
17.128000,-0.06157635
17.132000,-0.06896552
17.136000,-0.06896552
17.140000,-0.07389163
17.144000,-0.06650246
17.148000,-0.06403941
17.152000,-0.06403941
17.156000,-0.06157635
17.160000,-0.06650246
17.164000,-0.07142857
17.168000,-0.08374384
17.172000,-0.07389163
17.176000,-0.08128079
17.180000,-0.07389163
17.184000,-0.06403941
17.188000,-0.06650246
17.192000,-0.06157635
17.196000,-0.06403941
17.200000,-0.06650246
17.204000,-0.05665025
17.208000,-0.04679803
17.212000,-0.03448276
17.216000,-0.00985222
17.220000,0.05665025
17.224000,0.14285714
17.228000,0.23891626
17.232000,0.29064039
17.236000,0.32512315
17.240000,0.35960591
17.244000,0.41133005
17.248000,0.40886700
17.252000,0.30788177
17.256000,0.06403941
17.260000,-0.18719212
17.264000,-0.32512315
17.268000,-0.34482759
17.272000,-0.28078818
17.276000,-0.18226601
17.280000,-0.14039409
17.284000,-0.11083744
17.288000,-0.11576355
17.292000,-0.12068966
17.296000,-0.11822660
17.300000,-0.12315271
17.304000,-0.11822660
17.308000,-0.12068966
17.312000,-0.11330049
17.316000,-0.11822660
17.320000,-0.11822660
17.324000,-0.11330049
17.328000,-0.12807882
17.332000,-0.12068966
17.336000,-0.13054187
17.340000,-0.12561576
17.344000,-0.12068966
17.348000,-0.11330049
17.352000,-0.10837438
17.356000,-0.11083744
17.360000,-0.10837438
17.364000,-0.11576355
17.368000,-0.11083744
17.372000,-0.12068966
17.376000,-0.11083744
17.380000,-0.11330049
17.384000,-0.10344828
17.388000,-0.09852217
17.392000,-0.09605911
17.396000,-0.10098522
17.400000,-0.09605911
17.404000,-0.10344828
17.408000,-0.09359606
17.412000,-0.08866995
17.416000,-0.08128079
17.420000,-0.07142857
17.424000,-0.07635468
17.428000,-0.07881773
17.432000,-0.09359606
17.436000,-0.07635468
17.440000,-0.06896552
17.444000,-0.05911330
17.448000,-0.05911330
17.452000,-0.04926108
17.456000,-0.05418719
17.460000,-0.04679803
17.464000,-0.05911330
17.468000,-0.05911330
17.472000,-0.05911330
17.476000,-0.06403941
17.480000,-0.04433498
17.484000,-0.03694581
17.488000,-0.05172414
17.492000,-0.05172414
17.496000,-0.06157635
17.500000,-0.06157635
17.504000,-0.05665025
17.508000,-0.05911330
17.512000,-0.06650246
17.516000,-0.05911330
17.520000,-0.05665025
17.524000,-0.05665025
17.528000,-0.05665025
17.532000,-0.05665025
17.536000,-0.06157635
17.540000,-0.04926108
17.544000,-0.03940887
17.548000,-0.03940887
17.552000,-0.02709360
17.556000,-0.01477833
17.560000,-0.01970443
17.564000,-0.02955665
17.568000,-0.02463054
17.572000,-0.02216749
17.576000,-0.01724138
17.580000,-0.00492611
17.584000,0.00000000
17.588000,0.01477833
17.592000,0.01477833
17.596000,0.01724138
17.600000,0.01477833
17.604000,0.02955665
17.608000,0.05172414
17.612000,0.06403941
17.616000,0.07389163
17.620000,0.08620690
17.624000,0.08866995
17.628000,0.09359606
17.632000,0.07142857
17.636000,0.06403941
17.640000,0.05911330
17.644000,0.05418719
17.648000,0.06403941
17.652000,0.06650246
17.656000,0.05172414
17.660000,0.04679803
17.664000,0.02216749
17.668000,0.01970443
17.672000,0.00985222
17.676000,0.00738916
17.680000,0.01231527
17.684000,0.01231527
17.688000,0.00738916
17.692000,0.01231527
17.696000,0.00000000
17.700000,0.00000000
17.704000,-0.01724138
17.708000,-0.01724138
17.712000,-0.01970443
17.716000,-0.00985222
17.720000,-0.00246305
17.724000,-0.00492611
17.728000,-0.01477833
17.732000,-0.02955665
17.736000,-0.02463054
17.740000,-0.01477833
17.744000,-0.00985222
17.748000,-0.01477833
17.752000,-0.00738916
17.756000,-0.00985222
17.760000,-0.01724138
17.764000,-0.02463054
17.768000,-0.02216749
17.772000,-0.01231527
17.776000,-0.00492611
17.780000,0.01724138
17.784000,0.05665025
17.788000,0.13300493
17.792000,0.22906404
17.796000,0.31280788
17.800000,0.33497537
17.804000,0.33990148
17.808000,0.38423645
17.812000,0.42857143
17.816000,0.42118227
17.820000,0.28325123
17.824000,0.02463054
17.828000,-0.20443350
17.832000,-0.32512315
17.836000,-0.32019704
17.840000,-0.24876847
17.844000,-0.16256158
17.848000,-0.10591133
17.852000,-0.09605911
17.856000,-0.10591133
17.860000,-0.10837438
17.864000,-0.11576355
17.868000,-0.11083744
17.872000,-0.11330049
17.876000,-0.11083744
17.880000,-0.09852217
17.884000,-0.09605911
17.888000,-0.09359606
17.892000,-0.09852217
17.896000,-0.11576355
17.900000,-0.11083744
17.904000,-0.11822660
17.908000,-0.10837438
17.912000,-0.09852217
17.916000,-0.09605911
17.920000,-0.09359606
17.924000,-0.09605911
17.928000,-0.10098522
17.932000,-0.10098522
17.936000,-0.10837438
17.940000,-0.11083744
17.944000,-0.09359606
17.948000,-0.09605911
17.952000,-0.08374384
17.956000,-0.07635468
17.960000,-0.07142857
17.964000,-0.08620690
17.968000,-0.09113300
17.972000,-0.08866995
17.976000,-0.07389163
17.980000,-0.07142857
17.984000,-0.06403941
17.988000,-0.05665025
17.992000,-0.05665025
17.996000,-0.04926108
18.000000,-0.04926108
18.004000,-0.04679803
18.008000,-0.04433498
18.012000,-0.03448276
18.016000,-0.01970443
18.020000,-0.01724138
18.024000,-0.01970443
18.028000,-0.02216749
18.032000,-0.02463054
18.036000,-0.01724138
18.040000,-0.02955665
18.044000,-0.01970443
18.048000,-0.01477833
18.052000,-0.00738916
18.056000,-0.00492611
18.060000,-0.00985222
18.064000,-0.02463054
18.068000,-0.01724138
18.072000,-0.01970443
18.076000,-0.02216749
18.080000,-0.01724138
18.084000,-0.01970443
18.088000,-0.01724138
18.092000,-0.01477833
18.096000,-0.02216749
18.100000,-0.03201970
18.104000,-0.03448276
18.108000,-0.03694581
18.112000,-0.03448276
18.116000,-0.03201970
18.120000,-0.02709360
18.124000,-0.03448276
18.128000,-0.03940887
18.132000,-0.04926108
18.136000,-0.04187192
18.140000,-0.05911330
18.144000,-0.04187192
18.148000,-0.02216749
18.152000,-0.03940887
18.156000,-0.00985222
18.160000,-0.01231527
18.164000,-0.00985222
18.168000,-0.01477833
18.172000,-0.00738916
18.176000,0.00985222
18.180000,0.02216749
18.184000,0.04433498
18.188000,0.06157635
18.192000,0.07881773
18.196000,0.06403941
18.200000,0.05665025
18.204000,0.05172414
18.208000,0.04187192
18.212000,0.04187192
18.216000,0.03940887
18.220000,0.05418719
18.224000,0.04433498
18.228000,0.02216749
18.232000,-0.00492611
18.236000,-0.00738916
18.240000,-0.01970443
18.244000,-0.01231527
18.248000,-0.00738916
18.252000,0.00492611
18.256000,0.00246305
18.260000,0.00000000
18.264000,-0.01477833
18.268000,-0.01970443
18.272000,-0.01724138
18.276000,-0.00738916
18.280000,-0.00246305
18.284000,-0.00246305
18.288000,0.00246305
18.292000,0.00246305
18.296000,-0.00985222
18.300000,-0.00985222
18.304000,-0.01970443
18.308000,-0.00985222
18.312000,-0.00985222
18.316000,-0.00738916
18.320000,0.00492611
18.324000,0.00000000
18.328000,0.00492611
18.332000,-0.00492611
18.336000,0.00738916
18.340000,0.02463054
18.344000,0.05172414
18.348000,0.10591133
18.352000,0.21674877
18.356000,0.31034483
18.360000,0.38669951
18.364000,0.40640394
18.368000,0.42857143
18.372000,0.47783251
18.376000,0.48768473
18.380000,0.38177340
18.384000,0.16748768
18.388000,-0.07881773
18.392000,-0.24384236
18.396000,-0.28325123
18.400000,-0.23152709
18.404000,-0.15517241
18.408000,-0.10098522
18.412000,-0.06896552
18.416000,-0.05911330
18.420000,-0.07881773
18.424000,-0.07142857
18.428000,-0.07635468
18.432000,-0.07389163
18.436000,-0.07881773
18.440000,-0.07389163
18.444000,-0.07142857
18.448000,-0.07389163
18.452000,-0.07635468
18.456000,-0.07142857
18.460000,-0.06403941
18.464000,-0.06896552
18.468000,-0.07881773
18.472000,-0.08620690
18.476000,-0.07881773
18.480000,-0.07881773
18.484000,-0.06403941
18.488000,-0.05665025
18.492000,-0.06650246
18.496000,-0.06896552
18.500000,-0.08374384
18.504000,-0.07389163
18.508000,-0.07635468
18.512000,-0.05665025
18.516000,-0.04926108
18.520000,-0.04926108
18.524000,-0.05665025
18.528000,-0.05172414
18.532000,-0.05665025
18.536000,-0.06403941
18.540000,-0.05418719
18.544000,-0.04679803
18.548000,-0.02955665
18.552000,-0.02463054
18.556000,-0.02955665
18.560000,-0.01477833
18.564000,-0.02955665
18.568000,-0.02463054
18.572000,-0.03940887
18.576000,-0.03201970
18.580000,-0.02463054
18.584000,-0.02709360
18.588000,-0.02463054
18.592000,-0.00985222
18.596000,-0.02216749
18.600000,-0.02216749
18.604000,-0.02463054
18.608000,-0.02709360
18.612000,-0.00738916
18.616000,-0.00492611
18.620000,0.00000000
18.624000,-0.00246305
18.628000,-0.00246305
18.632000,-0.01477833
18.636000,-0.02463054
18.640000,-0.01970443
18.644000,-0.00738916
18.648000,0.00738916
18.652000,0.02216749
18.656000,0.04926108
18.660000,0.09359606
18.664000,0.12068966
18.668000,0.18226601
18.672000,0.26847291
18.676000,0.35467980
18.680000,0.46059113
18.684000,0.58128079
18.688000,0.72413793
18.692000,0.85221675
18.696000,0.94581281
18.700000,0.99014778
18.704000,1.00000000
18.708000,0.98029557
18.712000,0.93596059
18.716000,0.86453202
18.720000,0.75615764
18.724000,0.59359606
18.728000,0.36206897
18.732000,0.06157635
18.736000,-0.22660099
18.740000,-0.42118227
18.744000,-0.47044335
18.748000,-0.40394089
18.752000,-0.27586207
18.756000,-0.16256158
18.760000,-0.12068966
18.764000,-0.11822660
18.768000,-0.16502463
18.772000,-0.20935961
18.776000,-0.24384236
18.780000,-0.26108374
18.784000,-0.27832512
18.788000,-0.29064039
18.792000,-0.30295567
18.796000,-0.31527094
18.800000,-0.32512315
18.804000,-0.32019704
18.808000,-0.29556650
18.812000,-0.27586207
18.816000,-0.26600985
18.820000,-0.25615764
18.824000,-0.27093596
18.828000,-0.29310345
18.832000,-0.30049261
18.836000,-0.31280788
18.840000,-0.31527094
18.844000,-0.31527094
18.848000,-0.30788177
18.852000,-0.31773399
18.856000,-0.32758621
18.860000,-0.34236453
18.864000,-0.36206897
18.868000,-0.36206897
18.872000,-0.35714286
18.876000,-0.35960591
18.880000,-0.35467980
18.884000,-0.35467980
18.888000,-0.35221675
18.892000,-0.33990148
18.896000,-0.35467980
18.900000,-0.33497537
18.904000,-0.33743842
18.908000,-0.31034483
18.912000,-0.27832512
18.916000,-0.27093596
18.920000,-0.23645320
18.924000,-0.23645320
18.928000,-0.21182266
18.932000,-0.19704433
18.936000,-0.16995074
18.940000,-0.15270936
18.944000,-0.13054187
18.948000,-0.10837438
18.952000,-0.08374384
18.956000,-0.07142857
18.960000,-0.06157635
18.964000,-0.04926108
18.968000,-0.04679803
18.972000,-0.06403941
18.976000,-0.05911330
18.980000,-0.05172414
18.984000,-0.04187192
18.988000,-0.04187192
18.992000,-0.03940887
18.996000,-0.03940887
19.000000,-0.03940887
19.004000,-0.05665025
19.008000,-0.05172414
19.012000,-0.05418719
19.016000,-0.05418719
19.020000,-0.04433498
19.024000,-0.04926108
19.028000,-0.05911330
19.032000,-0.06896552
19.036000,-0.06403941
19.040000,-0.06403941
19.044000,-0.05172414
19.048000,-0.05665025
19.052000,-0.05418719
19.056000,-0.06650246
19.060000,-0.05911330
19.064000,-0.05911330
19.068000,-0.05911330
19.072000,-0.05418719
19.076000,-0.06403941
19.080000,-0.05418719
19.084000,-0.04926108
19.088000,-0.03940887
19.092000,-0.04679803
19.096000,-0.04679803
19.100000,-0.04926108
19.104000,-0.05911330
19.108000,-0.05665025
19.112000,-0.04926108
19.116000,-0.05172414
19.120000,-0.04187192
19.124000,-0.03940887
19.128000,-0.04679803
19.132000,-0.05911330
19.136000,-0.06650246
19.140000,-0.06896552
19.144000,-0.06157635
19.148000,-0.05172414
19.152000,-0.04433498
19.156000,-0.04926108
19.160000,-0.05172414
19.164000,-0.07635468
19.168000,-0.06403941
19.172000,-0.06650246
19.176000,-0.05911330
19.180000,-0.04926108
19.184000,-0.05418719
19.188000,-0.05665025
19.192000,-0.05418719
19.196000,-0.05911330
19.200000,-0.06157635
19.204000,-0.06650246
19.208000,-0.06650246
19.212000,-0.06403941
19.216000,-0.05911330
19.220000,-0.05911330
19.224000,-0.05911330
19.228000,-0.05665025
19.232000,-0.06896552
19.236000,-0.07881773
19.240000,-0.08866995
19.244000,-0.08128079
19.248000,-0.06403941
19.252000,-0.05172414
19.256000,-0.05911330
19.260000,-0.04926108
19.264000,-0.06896552
19.268000,-0.07635468
19.272000,-0.08374384
19.276000,-0.08128079
19.280000,-0.07389163
19.284000,-0.06650246
19.288000,-0.07389163
19.292000,-0.06896552
19.296000,-0.07142857
19.300000,-0.07635468
19.304000,-0.07142857
19.308000,-0.06896552
19.312000,-0.06157635
19.316000,-0.04926108
19.320000,-0.03940887
19.324000,-0.03448276
19.328000,-0.02955665
19.332000,-0.01970443
19.336000,-0.01970443
19.340000,-0.01231527
19.344000,-0.00492611
19.348000,0.00000000
19.352000,-0.00246305
19.356000,-0.00985222
19.360000,-0.02216749
19.364000,-0.03448276
19.368000,-0.04679803
19.372000,-0.05418719
19.376000,-0.04187192
19.380000,-0.05911330
19.384000,-0.06896552
19.388000,-0.06896552
19.392000,-0.06157635
19.396000,-0.07635468
19.400000,-0.08374384
19.404000,-0.08620690
19.408000,-0.09113300
19.412000,-0.07635468
19.416000,-0.06896552
19.420000,-0.06896552
19.424000,-0.06650246
19.428000,-0.07389163
19.432000,-0.07635468
19.436000,-0.08374384
19.440000,-0.07389163
19.444000,-0.07635468
19.448000,-0.07142857
19.452000,-0.09113300
19.456000,-0.08374384
19.460000,-0.07881773
19.464000,-0.08620690
19.468000,-0.08128079
19.472000,-0.06403941
19.476000,-0.07881773
19.480000,-0.06896552
19.484000,-0.06157635
19.488000,-0.03940887
19.492000,0.00000000
19.496000,0.04679803
19.500000,0.12315271
19.504000,0.23399015
19.508000,0.30788177
19.512000,0.33990148
19.516000,0.36206897
19.520000,0.41871921
19.524000,0.45812808
19.528000,0.36699507
19.532000,0.15517241
19.536000,-0.09852217
19.540000,-0.31034483
19.544000,-0.36453202
19.548000,-0.32019704
19.552000,-0.22660099
19.556000,-0.15517241
19.560000,-0.13054187
19.564000,-0.13546798
19.568000,-0.13793103
19.572000,-0.14039409
19.576000,-0.15270936
19.580000,-0.16256158
19.584000,-0.15763547
19.588000,-0.13300493
19.592000,-0.12561576
19.596000,-0.14039409
19.600000,-0.13793103
19.604000,-0.14778325
19.608000,-0.13793103
19.612000,-0.14532020
19.616000,-0.14039409
19.620000,-0.13793103
19.624000,-0.13300493
19.628000,-0.13546798
19.632000,-0.14532020
19.636000,-0.15763547
19.640000,-0.15517241
19.644000,-0.13546798
19.648000,-0.13546798
19.652000,-0.13793103
19.656000,-0.12807882
19.660000,-0.12068966
19.664000,-0.13054187
19.668000,-0.15024631
19.672000,-0.14285714
19.676000,-0.14285714
19.680000,-0.14532020
19.684000,-0.13793103
19.688000,-0.13300493
19.692000,-0.13054187
19.696000,-0.14532020
19.700000,-0.15024631
19.704000,-0.14285714
19.708000,-0.15024631
19.712000,-0.14285714
19.716000,-0.15270936
19.720000,-0.14778325
19.724000,-0.13793103
19.728000,-0.15763547
19.732000,-0.16502463
19.736000,-0.17980296
19.740000,-0.17733990
19.744000,-0.16995074
19.748000,-0.16748768
19.752000,-0.15270936
19.756000,-0.16748768
19.760000,-0.15763547
19.764000,-0.17733990
19.768000,-0.16256158
19.772000,-0.16748768
19.776000,-0.16502463
19.780000,-0.14778325
19.784000,-0.13546798
19.788000,-0.12807882
19.792000,-0.10591133
19.796000,-0.12315271
19.800000,-0.12315271
19.804000,-0.12807882
19.808000,-0.13054187
19.812000,-0.11822660
19.816000,-0.11330049
19.820000,-0.11576355
19.824000,-0.12315271
19.828000,-0.12315271
19.832000,-0.12561576
19.836000,-0.12315271
19.840000,-0.13054187
19.844000,-0.13793103
19.848000,-0.12068966
19.852000,-0.11576355
19.856000,-0.12315271
19.860000,-0.12068966
19.864000,-0.12561576
19.868000,-0.12561576
19.872000,-0.12561576
19.876000,-0.11822660
19.880000,-0.10344828
19.884000,-0.09605911
19.888000,-0.07881773
19.892000,-0.06896552
19.896000,-0.06650246
19.900000,-0.06650246
19.904000,-0.05911330
19.908000,-0.03694581
19.912000,-0.01724138
19.916000,0.00000000
19.920000,0.00492611
19.924000,0.00492611
19.928000,-0.00492611
19.932000,-0.01724138
19.936000,-0.01970443
19.940000,-0.02216749
19.944000,-0.02955665
19.948000,-0.03448276
19.952000,-0.03201970
19.956000,-0.02955665
19.960000,-0.03940887
19.964000,-0.03448276
19.968000,-0.05172414
19.972000,-0.04433498
19.976000,-0.03448276
19.980000,-0.03448276
19.984000,-0.02955665
19.988000,-0.02955665
19.992000,-0.02463054
19.996000,-0.04187192
20.000000,-0.04433498
20.004000,-0.03694581
20.008000,-0.03448276
20.012000,-0.03694581
20.016000,-0.02709360
20.020000,-0.01970443
20.024000,-0.02955665
20.028000,-0.02955665
20.032000,-0.02955665
20.036000,-0.03201970
20.040000,-0.03201970
20.044000,-0.01477833
20.048000,-0.01477833
20.052000,-0.00492611
20.056000,-0.00738916
20.060000,-0.00492611
20.064000,0.00246305
20.068000,0.02955665
20.072000,0.07389163
20.076000,0.13054187
20.080000,0.23645320
20.084000,0.36453202
20.088000,0.41871921
20.092000,0.43349754
20.096000,0.45812808
20.100000,0.52216749
20.104000,0.53694581
20.108000,0.42857143
20.112000,0.19211823
20.116000,-0.06896552
20.120000,-0.24384236
20.124000,-0.28817734
20.128000,-0.22906404
20.132000,-0.13546798
20.136000,-0.08620690
20.140000,-0.06650246
20.144000,-0.06650246
20.148000,-0.05911330
20.152000,-0.06650246
20.156000,-0.06157635
20.160000,-0.06403941
20.164000,-0.06896552
20.168000,-0.06650246
20.172000,-0.07389163
20.176000,-0.07142857
20.180000,-0.06650246
20.184000,-0.05172414
20.188000,-0.06157635
20.192000,-0.06896552
20.196000,-0.07881773
20.200000,-0.07881773
20.204000,-0.08866995
20.208000,-0.08620690
20.212000,-0.08866995
20.216000,-0.08128079
20.220000,-0.07881773
20.224000,-0.06896552
20.228000,-0.06896552
20.232000,-0.06896552
20.236000,-0.07881773
20.240000,-0.07881773
20.244000,-0.07881773
20.248000,-0.06896552
20.252000,-0.05418719
20.256000,-0.06650246
20.260000,-0.07635468
20.264000,-0.07881773
20.268000,-0.07389163
20.272000,-0.06403941
20.276000,-0.06650246
20.280000,-0.04926108
20.284000,-0.04187192
20.288000,-0.03201970
20.292000,-0.02463054
20.296000,-0.04433498
20.300000,-0.04187192
20.304000,-0.04433498
20.308000,-0.02709360
20.312000,-0.02463054
20.316000,-0.02216749
20.320000,-0.00985222
20.324000,-0.00738916
20.328000,-0.00738916
20.332000,-0.01970443
20.336000,-0.02463054
20.340000,-0.01231527
20.344000,-0.00985222
20.348000,-0.00246305
20.352000,0.00000000
20.356000,-0.00246305
20.360000,-0.01724138
20.364000,-0.03201970
20.368000,-0.02709360
20.372000,-0.03694581
20.376000,-0.02955665
20.380000,-0.02463054
20.384000,-0.02709360
20.388000,-0.02709360
20.392000,-0.01724138
20.396000,-0.03694581
20.400000,-0.04926108
20.404000,-0.04187192
20.408000,-0.04926108
20.412000,-0.02955665
20.416000,-0.01724138
20.420000,-0.01231527
20.424000,-0.00246305
20.428000,-0.00985222
20.432000,-0.01477833
20.436000,-0.00985222
20.440000,-0.00492611
20.444000,0.00492611
20.448000,0.00985222
20.452000,0.02709360
20.456000,0.03694581
20.460000,0.04926108
20.464000,0.04679803
20.468000,0.05911330
20.472000,0.07635468
20.476000,0.08866995
20.480000,0.11330049
20.484000,0.12068966
20.488000,0.12561576
20.492000,0.12561576
20.496000,0.12807882
20.500000,0.13546798
20.504000,0.12561576
20.508000,0.11330049
20.512000,0.11083744
20.516000,0.09359606
20.520000,0.08374384
20.524000,0.09359606
20.528000,0.07142857
20.532000,0.06403941
20.536000,0.04679803
20.540000,0.03448276
20.544000,0.02216749
20.548000,0.03448276
20.552000,0.03694581
20.556000,0.03448276
20.560000,0.01970443
20.564000,0.01477833
20.568000,0.01970443
20.572000,0.00246305
20.576000,0.00492611
20.580000,0.02216749
20.584000,0.01477833
20.588000,0.00738916
20.592000,0.01231527
20.596000,0.00000000
20.600000,0.00000000
20.604000,-0.00492611
20.608000,-0.00738916
20.612000,-0.00738916
20.616000,-0.00738916
20.620000,-0.00492611
20.624000,-0.00738916
20.628000,-0.01477833
20.632000,-0.00738916
20.636000,-0.00985222
20.640000,0.00000000
20.644000,0.01231527
20.648000,0.03201970
20.652000,0.08620690
20.656000,0.17980296
20.660000,0.26354680
20.664000,0.32019704
20.668000,0.35221675
20.672000,0.38177340
20.676000,0.43842365
20.680000,0.44334975
20.684000,0.36699507
20.688000,0.15517241
20.692000,-0.10344828
20.696000,-0.29802956
20.700000,-0.34729064
20.704000,-0.30295567
20.708000,-0.20443350
20.712000,-0.13546798
20.716000,-0.10098522
20.720000,-0.10591133
20.724000,-0.10837438
20.728000,-0.09605911
20.732000,-0.11822660
20.736000,-0.11822660
20.740000,-0.10837438
20.744000,-0.10344828
20.748000,-0.08866995
20.752000,-0.09113300
20.756000,-0.08620690
20.760000,-0.09605911
20.764000,-0.11083744
20.768000,-0.10837438
20.772000,-0.09852217
20.776000,-0.10098522
20.780000,-0.10098522
20.784000,-0.09359606
20.788000,-0.09852217
20.792000,-0.08620690
20.796000,-0.09359606
20.800000,-0.08866995
20.804000,-0.09359606
20.808000,-0.10591133
20.812000,-0.08620690
20.816000,-0.07635468
20.820000,-0.07881773
20.824000,-0.08128079
20.828000,-0.08620690
20.832000,-0.08128079
20.836000,-0.07389163
20.840000,-0.06403941
20.844000,-0.07389163
20.848000,-0.05911330
20.852000,-0.04926108
20.856000,-0.03940887
20.860000,-0.04926108
20.864000,-0.05418719
20.868000,-0.05911330
20.872000,-0.06157635
20.876000,-0.03694581
20.880000,-0.02463054
20.884000,-0.01477833
20.888000,-0.01724138
20.892000,-0.02955665
20.896000,-0.03201970
20.900000,-0.02955665
20.904000,-0.02709360
20.908000,-0.01477833
20.912000,-0.00492611
20.916000,0.00000000
20.920000,-0.00492611
20.924000,-0.01724138
20.928000,-0.02463054
20.932000,-0.02216749
20.936000,-0.00738916
20.940000,-0.00985222
20.944000,0.00246305
20.948000,-0.00738916
20.952000,-0.01231527
20.956000,-0.00985222
20.960000,0.00000000
20.964000,-0.02216749
20.968000,-0.03694581
20.972000,-0.04433498
20.976000,-0.03694581
20.980000,-0.02709360
20.984000,-0.03448276
20.988000,-0.03201970
20.992000,-0.03448276
20.996000,-0.05418719
21.000000,-0.04926108
21.004000,-0.04679803
21.008000,-0.04926108
21.012000,-0.04433498
21.016000,-0.03694581
21.020000,-0.03201970
21.024000,-0.03694581
21.028000,-0.03448276
21.032000,-0.02709360
21.036000,-0.02955665
21.040000,-0.02216749
21.044000,-0.00738916
21.048000,0.01477833
21.052000,0.02955665
21.056000,0.03201970
21.060000,0.03201970
21.064000,0.03694581
21.068000,0.04433498
21.072000,0.04433498
21.076000,0.05911330
21.080000,0.05665025
21.084000,0.04926108
21.088000,0.04433498
21.092000,0.02955665
21.096000,0.00738916
21.100000,0.00738916
21.104000,0.00000000
21.108000,-0.00492611
21.112000,-0.01231527
21.116000,-0.01231527
21.120000,-0.01231527
21.124000,-0.02709360
21.128000,-0.03694581
21.132000,-0.03940887
21.136000,-0.03940887
21.140000,-0.04433498
21.144000,-0.03694581
21.148000,-0.02955665
21.152000,-0.03694581
21.156000,-0.02955665
21.160000,-0.02216749
21.164000,-0.03448276
21.168000,-0.04679803
21.172000,-0.03448276
21.176000,-0.04433498
21.180000,-0.03201970
21.184000,-0.02709360
21.188000,-0.03694581
21.192000,-0.05172414
21.196000,-0.04679803
21.200000,-0.05911330
21.204000,-0.06157635
21.208000,-0.04926108
21.212000,-0.04187192
21.216000,-0.04187192
21.220000,-0.03201970
21.224000,-0.03448276
21.228000,-0.01724138
21.232000,0.00738916
21.236000,0.06896552
21.240000,0.17733990
21.244000,0.28571429
21.248000,0.33990148
21.252000,0.34975369
21.256000,0.35467980
21.260000,0.37931034
21.264000,0.33990148
21.268000,0.19950739
21.272000,-0.01970443
21.276000,-0.22906404
21.280000,-0.32758621
21.284000,-0.32758621
21.288000,-0.24384236
21.292000,-0.16995074
21.296000,-0.14039409
21.300000,-0.12561576
21.304000,-0.11576355
21.308000,-0.11822660
21.312000,-0.12561576
21.316000,-0.12068966
21.320000,-0.10591133
21.324000,-0.11083744
21.328000,-0.10837438
21.332000,-0.10837438
21.336000,-0.11822660
21.340000,-0.11576355
21.344000,-0.10344828
21.348000,-0.10344828
21.352000,-0.10344828
21.356000,-0.09852217
21.360000,-0.10344828
21.364000,-0.11330049
21.368000,-0.11822660
21.372000,-0.11576355
21.376000,-0.10837438
21.380000,-0.08866995
21.384000,-0.09113300
21.388000,-0.09605911
21.392000,-0.09359606
21.396000,-0.11083744
21.400000,-0.10591133
21.404000,-0.11330049
21.408000,-0.09359606
21.412000,-0.08866995
21.416000,-0.08620690
21.420000,-0.09113300
21.424000,-0.09113300
21.428000,-0.08620690
21.432000,-0.09113300
21.436000,-0.08866995
21.440000,-0.07881773
21.444000,-0.05172414
21.448000,-0.04926108
21.452000,-0.04679803
21.456000,-0.04187192
21.460000,-0.05911330
21.464000,-0.07142857
21.468000,-0.06403941
21.472000,-0.05665025
21.476000,-0.05172414
21.480000,-0.04187192
21.484000,-0.03940887
21.488000,-0.03940887
21.492000,-0.03694581
21.496000,-0.04679803
21.500000,-0.05665025
21.504000,-0.05172414
21.508000,-0.04926108
21.512000,-0.03448276
21.516000,-0.01970443
21.520000,-0.03940887
21.524000,-0.03940887
