time,amplitude,sr,360.0
0.000000,0.70638909
0.002778,0.70638909
0.005556,0.70638909
0.008333,0.70638909
0.011111,0.70638909
0.013889,0.70638909
0.016667,0.70638909
0.019444,0.70638909
0.022222,0.70854271
0.025000,0.70854271
0.027778,0.70782484
0.030556,0.70710696
0.033333,0.70495334
0.036111,0.70495334
0.038889,0.70710696
0.041667,0.70782484
0.044444,0.70926059
0.047222,0.70926059
0.050000,0.70997846
0.052778,0.71141421
0.055556,0.71069634
0.058333,0.70997846
0.061111,0.70854271
0.063889,0.70710696
0.066667,0.70710696
0.069444,0.70279971
0.072222,0.70279971
0.075000,0.70279971
0.077778,0.70495334
0.080556,0.70423546
0.083333,0.70710696
0.086111,0.70567121
0.088889,0.70495334
0.091667,0.70423546
0.094444,0.70279971
0.097222,0.70208184
0.100000,0.70064609
0.102778,0.69992821
0.105556,0.69777459
0.108333,0.69921034
0.111111,0.70064609
0.113889,0.70136396
0.116667,0.69992821
0.119444,0.69992821
0.122222,0.69992821
0.125000,0.69777459
0.127778,0.69849246
0.130556,0.69777459
0.133333,0.69705671
0.136111,0.69777459
0.138889,0.69562096
0.141667,0.69705671
0.144444,0.69705671
0.147222,0.69633884
0.150000,0.69562096
0.152778,0.69705671
0.155556,0.69633884
0.158333,0.69562096
0.161111,0.69562096
0.163889,0.69418521
0.166667,0.69490309
0.169444,0.69418521
0.172222,0.69562096
0.175000,0.69562096
0.177778,0.69633884
0.180556,0.69705671
0.183333,0.69705671
0.186111,0.69705671
0.188889,0.69633884
0.191667,0.69346734
0.194444,0.69562096
0.197222,0.69490309
0.200000,0.69274946
0.202778,0.69418521
0.205556,0.69274946
0.208333,0.69274946
0.211111,0.69418521
0.213889,0.69346734
0.216667,0.69490309
0.219444,0.69633884
0.222222,0.69418521
0.225000,0.69562096
0.227778,0.69490309
0.230556,0.69418521
0.233333,0.69346734
0.236111,0.69274946
0.238889,0.69274946
0.241667,0.69203159
0.244444,0.69346734
0.247222,0.69346734
0.250000,0.69346734
0.252778,0.69562096
0.255556,0.69490309
0.258333,0.69490309
0.261111,0.69418521
0.263889,0.69203159
0.266667,0.69203159
0.269444,0.69131371
0.272222,0.69274946
0.275000,0.69274946
0.277778,0.69346734
0.280556,0.69490309
0.283333,0.69418521
0.286111,0.69490309
0.288889,0.69705671
0.291667,0.69418521
0.294444,0.69418521
0.297222,0.69562096
0.300000,0.69562096
0.302778,0.69633884
0.305556,0.69777459
0.308333,0.69777459
0.311111,0.70208184
0.313889,0.70495334
0.316667,0.70567121
0.319444,0.70638909
0.322222,0.70782484
0.325000,0.70926059
0.327778,0.70854271
0.330556,0.71213209
0.333333,0.71428571
0.336111,0.71572146
0.338889,0.72002872
0.341667,0.72146447
0.344444,0.72074659
0.347222,0.72074659
0.350000,0.71931084
0.352778,0.71715721
0.355556,0.71715721
0.358333,0.71500359
0.361111,0.71284996
0.363889,0.71069634
0.366667,0.70926059
0.369444,0.70638909
0.372222,0.70567121
0.375000,0.70423546
0.377778,0.70136396
0.380556,0.69921034
0.383333,0.69849246
0.386111,0.69562096
0.388889,0.69346734
0.391667,0.69418521
0.394444,0.69203159
0.397222,0.69131371
0.400000,0.69059584
0.402778,0.68987796
0.405556,0.68987796
0.408333,0.68916009
0.411111,0.69059584
0.413889,0.69203159
0.416667,0.69203159
0.419444,0.69203159
0.422222,0.69274946
0.425000,0.69274946
0.427778,0.69274946
0.430556,0.69203159
0.433333,0.69059584
0.436111,0.68916009
0.438889,0.68987796
0.441667,0.69059584
0.444444,0.69131371
0.447222,0.69418521
0.450000,0.69346734
0.452778,0.69418521
0.455556,0.69346734
0.458333,0.69203159
0.461111,0.68987796
0.463889,0.68628859
0.466667,0.68126346
0.469444,0.67336683
0.472222,0.66331658
0.475000,0.65613783
0.477778,0.65685571
0.480556,0.66618808
0.483333,0.69418521
0.486111,0.73438622
0.488889,0.78750897
0.491667,0.84422111
0.494444,0.89590811
0.497222,0.93539124
0.500000,0.95333812
0.502778,0.94041637
0.505556,0.89877961
0.508333,0.83201723
0.511111,0.76022972
0.513889,0.70710696
0.516667,0.67480258
0.519444,0.66331658
0.522222,0.66547021
0.525000,0.66762383
0.527778,0.66618808
0.530556,0.65398421
0.533333,0.63962670
0.536111,0.62311558
0.538889,0.60373295
0.541667,0.59009332
0.544444,0.58291457
0.547222,0.57860732
0.550000,0.58076095
0.552778,0.58650395
0.555556,0.59224695
0.558333,0.60445083
0.561111,0.61593683
0.563889,0.62742283
0.566667,0.63890883
0.569444,0.65254846
0.572222,0.66259871
0.575000,0.67193108
0.577778,0.68054559
0.580556,0.68485284
0.583333,0.68844221
0.586111,0.68844221
0.588889,0.69059584
0.591667,0.68916009
0.594444,0.69203159
0.597222,0.69131371
0.600000,0.69274946
0.602778,0.69131371
0.605556,0.69203159
0.608333,0.69346734
0.611111,0.69633884
0.613889,0.69921034
0.616667,0.70064609
0.619444,0.69992821
0.622222,0.69921034
0.625000,0.69992821
0.627778,0.69921034
0.630556,0.69992821
0.633333,0.69849246
0.636111,0.69849246
0.638889,0.69849246
0.641667,0.70279971
0.644444,0.70208184
0.647222,0.70351759
0.650000,0.70567121
0.652778,0.70495334
0.655556,0.70495334
0.658333,0.70495334
0.661111,0.70567121
0.663889,0.70423546
0.666667,0.70423546
0.669444,0.70495334
0.672222,0.70567121
0.675000,0.70638909
0.677778,0.70782484
0.680556,0.70926059
0.683333,0.70997846
0.686111,0.71069634
0.688889,0.70997846
0.691667,0.71069634
0.694444,0.70997846
0.697222,0.70997846
0.700000,0.71284996
0.702778,0.71213209
0.705556,0.71284996
0.708333,0.71428571
0.711111,0.71643934
0.713889,0.71859296
0.716667,0.72002872
0.719444,0.72146447
0.722222,0.72361809
0.725000,0.72290022
0.727778,0.72433597
0.730556,0.72433597
0.733333,0.72361809
0.736111,0.72505384
0.738889,0.72648959
0.741667,0.72864322
0.744444,0.72792534
0.747222,0.73366834
0.750000,0.73366834
0.752778,0.73582197
0.755556,0.73653984
0.758333,0.73653984
0.761111,0.73725772
0.763889,0.73941134
0.766667,0.74084709
0.769444,0.74084709
0.772222,0.74371859
0.775000,0.74587222
0.777778,0.74874372
0.780556,0.75089734
0.783333,0.75305097
0.786111,0.75664034
0.788889,0.75735822
0.791667,0.76094760
0.794444,0.75951184
0.797222,0.76166547
0.800000,0.76238335
0.802778,0.76525485
0.805556,0.76525485
0.808333,0.76669060
0.811111,0.76884422
0.813889,0.77099785
0.816667,0.77386935
0.819444,0.77530510
0.822222,0.77602297
0.825000,0.77530510
0.827778,0.77745872
0.830556,0.77530510
0.833333,0.77745872
0.836111,0.77674085
0.838889,0.77817660
0.841667,0.77889447
0.844444,0.78104810
0.847222,0.78176597
0.850000,0.78176597
0.852778,0.78176597
0.855556,0.78033022
0.858333,0.78104810
0.861111,0.77889447
0.863889,0.77674085
0.866667,0.77530510
0.869444,0.77171572
0.872222,0.76956210
0.875000,0.76884422
0.877778,0.76525485
0.880556,0.76238335
0.883333,0.76166547
0.886111,0.75879397
0.888889,0.75376884
0.891667,0.75161522
0.894444,0.74874372
0.897222,0.74515434
0.900000,0.74156497
0.902778,0.73797559
0.905556,0.73582197
0.908333,0.73223259
0.911111,0.73151472
0.913889,0.73079684
0.916667,0.72936109
0.919444,0.72720747
0.922222,0.72577172
0.925000,0.72433597
0.927778,0.72146447
0.930556,0.71715721
0.933333,0.71643934
0.936111,0.71428571
0.938889,0.71500359
0.941667,0.71356784
0.944444,0.71356784
0.947222,0.71428571
0.950000,0.71500359
0.952778,0.71428571
0.955556,0.71356784
0.958333,0.71213209
0.961111,0.71141421
0.963889,0.70926059
0.966667,0.70926059
0.969444,0.70926059
0.972222,0.70997846
0.975000,0.71141421
0.977778,0.71069634
0.980556,0.71069634
0.983333,0.71428571
0.986111,0.71284996
0.988889,0.71284996
0.991667,0.71284996
0.994444,0.70926059
0.997222,0.71141421
1.000000,0.70854271
1.002778,0.70782484
1.005556,0.70997846
1.008333,0.70997846
1.011111,0.71213209
1.013889,0.71213209
1.016667,0.71213209
1.019444,0.71213209
1.022222,0.71213209
1.025000,0.71069634
1.027778,0.70997846
1.030556,0.70854271
1.033333,0.70782484
1.036111,0.70782484
1.038889,0.70782484
1.041667,0.70997846
1.044444,0.70854271
1.047222,0.71069634
1.050000,0.71213209
1.052778,0.71213209
1.055556,0.70997846
1.058333,0.70997846
1.061111,0.70926059
1.063889,0.70710696
1.066667,0.70638909
1.069444,0.70495334
1.072222,0.70351759
1.075000,0.70423546
1.077778,0.70495334
1.080556,0.70495334
1.083333,0.70495334
1.086111,0.70423546
1.088889,0.70423546
1.091667,0.70495334
1.094444,0.70351759
1.097222,0.70279971
1.100000,0.70279971
1.102778,0.70208184
1.105556,0.70279971
1.108333,0.70208184
1.111111,0.70136396
1.113889,0.70351759
1.116667,0.70567121
1.119444,0.70351759
1.122222,0.70351759
1.125000,0.70423546
1.127778,0.70351759
1.130556,0.70208184
1.133333,0.70064609
1.136111,0.69992821
1.138889,0.70136396
1.141667,0.70279971
1.144444,0.70208184
1.147222,0.70351759
1.150000,0.70495334
1.152778,0.70495334
1.155556,0.70279971
1.158333,0.70136396
1.161111,0.70208184
1.163889,0.70279971
1.166667,0.69992821
1.169444,0.69921034
1.172222,0.70136396
1.175000,0.70208184
1.177778,0.70208184
1.180556,0.70279971
1.183333,0.70279971
1.186111,0.70351759
1.188889,0.70351759
1.191667,0.70351759
1.194444,0.70064609
1.197222,0.70208184
1.200000,0.70064609
1.202778,0.70064609
1.205556,0.70064609
1.208333,0.70136396
1.211111,0.70208184
1.213889,0.70423546
1.216667,0.70495334
1.219444,0.70567121
1.222222,0.70495334
1.225000,0.70495334
1.227778,0.70423546
1.230556,0.70423546
1.233333,0.70208184
1.236111,0.70208184
1.238889,0.70136396
1.241667,0.70208184
1.244444,0.70351759
1.247222,0.70351759
1.250000,0.70495334
1.252778,0.70567121
1.255556,0.70495334
1.258333,0.70638909
1.261111,0.70638909
1.263889,0.70782484
1.266667,0.70782484
1.269444,0.70782484
1.272222,0.70926059
1.275000,0.70926059
1.277778,0.71141421
1.280556,0.71356784
1.283333,0.71572146
1.286111,0.71500359
1.288889,0.72002872
1.291667,0.72074659
1.294444,0.72361809
1.297222,0.72505384
1.300000,0.72864322
1.302778,0.72792534
1.305556,0.72864322
1.308333,0.72720747
1.311111,0.72505384
1.313889,0.72505384
1.316667,0.72290022
1.319444,0.72146447
1.322222,0.72146447
1.325000,0.72002872
1.327778,0.72074659
1.330556,0.72074659
1.333333,0.71500359
1.336111,0.71356784
1.338889,0.71069634
1.341667,0.70782484
1.344444,0.70782484
1.347222,0.70423546
1.350000,0.70423546
1.352778,0.70351759
1.355556,0.70064609
1.358333,0.70064609
1.361111,0.69992821
1.363889,0.69849246
1.366667,0.69777459
1.369444,0.69633884
1.372222,0.69777459
1.375000,0.69705671
1.377778,0.69633884
1.380556,0.69562096
1.383333,0.69562096
1.386111,0.69633884
1.388889,0.69633884
1.391667,0.69490309
1.394444,0.69562096
1.397222,0.69490309
1.400000,0.69562096
1.402778,0.69633884
1.405556,0.69777459
1.408333,0.69849246
1.411111,0.69849246
1.413889,0.69992821
1.416667,0.69921034
1.419444,0.69992821
1.422222,0.69921034
1.425000,0.69849246
1.427778,0.69633884
1.430556,0.69131371
1.433333,0.68700646
1.436111,0.67982771
1.438889,0.66905958
1.441667,0.66331658
1.444444,0.66403446
1.447222,0.68054559
1.450000,0.71428571
1.452778,0.76597272
1.455556,0.82555635
1.458333,0.88585786
1.461111,0.93539124
1.463889,0.96267050
1.466667,0.95620962
1.469444,0.90954774
1.472222,0.83345298
1.475000,0.75520459
1.477778,0.69274946
1.480556,0.66044508
1.483333,0.65039483
1.486111,0.65398421
1.488889,0.65900933
1.491667,0.65900933
1.494444,0.65111271
1.497222,0.63962670
1.500000,0.62096195
1.502778,0.60229720
1.505556,0.58793970
1.508333,0.58219670
1.511111,0.58291457
1.513889,0.58937545
1.516667,0.60157933
1.519444,0.61378320
1.522222,0.62598708
1.525000,0.63962670
1.527778,0.65039483
1.530556,0.66331658
1.533333,0.67264896
1.536111,0.67982771
1.538889,0.68557071
1.541667,0.69059584
1.544444,0.69418521
1.547222,0.69705671
1.550000,0.70064609
1.552778,0.70208184
1.555556,0.70136396
1.558333,0.70279971
1.561111,0.70423546
1.563889,0.70351759
1.566667,0.70279971
1.569444,0.70279971
1.572222,0.70495334
1.575000,0.70423546
1.577778,0.70782484
1.580556,0.70854271
1.583333,0.70997846
1.586111,0.71069634
1.588889,0.70997846
1.591667,0.70997846
1.594444,0.71069634
1.597222,0.70854271
1.600000,0.70854271
1.602778,0.70710696
1.605556,0.70782484
1.608333,0.70782484
1.611111,0.71069634
1.613889,0.71141421
1.616667,0.71356784
1.619444,0.71213209
1.622222,0.71356784
1.625000,0.71500359
1.627778,0.71213209
1.630556,0.71213209
1.633333,0.71284996
1.636111,0.71356784
1.638889,0.71213209
1.641667,0.71356784
1.644444,0.71715721
1.647222,0.71787509
1.650000,0.72002872
1.652778,0.72290022
1.655556,0.72290022
1.658333,0.72505384
1.661111,0.72361809
1.663889,0.72290022
1.666667,0.72290022
1.669444,0.72002872
1.672222,0.72290022
1.675000,0.72361809
1.677778,0.72648959
1.680556,0.72864322
1.683333,0.73079684
1.686111,0.73295047
1.688889,0.73223259
1.691667,0.73366834
1.694444,0.73151472
1.697222,0.73223259
1.700000,0.73151472
1.702778,0.73438622
1.705556,0.73510409
1.708333,0.73797559
1.711111,0.73941134
1.713889,0.74156497
1.716667,0.74300072
1.719444,0.74515434
1.722222,0.74802584
1.725000,0.74874372
1.727778,0.74874372
1.730556,0.75089734
1.733333,0.75233309
1.736111,0.75376884
1.738889,0.75448672
1.741667,0.75664034
1.744444,0.75807609
1.747222,0.76022972
1.750000,0.76453697
1.752778,0.76669060
1.755556,0.76812635
1.758333,0.76956210
1.761111,0.76956210
1.763889,0.76956210
1.766667,0.77027997
1.769444,0.77027997
1.772222,0.77027997
1.775000,0.77386935
1.777778,0.77817660
1.780556,0.77817660
1.783333,0.77889447
1.786111,0.78033022
1.788889,0.77961235
1.791667,0.78104810
1.794444,0.78104810
1.797222,0.78248385
1.800000,0.78248385
1.802778,0.78320172
1.805556,0.78391960
1.808333,0.78320172
1.811111,0.78463747
1.813889,0.78607322
1.816667,0.78607322
1.819444,0.78463747
1.822222,0.78463747
1.825000,0.78391960
1.827778,0.78033022
1.830556,0.77817660
1.833333,0.77315147
1.836111,0.77027997
1.838889,0.76884422
1.841667,0.76597272
1.844444,0.76310122
1.847222,0.76381910
1.850000,0.76238335
1.852778,0.75951184
1.855556,0.75735822
1.858333,0.75233309
1.861111,0.74946159
1.863889,0.74443647
1.866667,0.74084709
1.869444,0.73653984
1.872222,0.73366834
1.875000,0.73295047
1.877778,0.73223259
1.880556,0.73007897
1.883333,0.73079684
1.886111,0.72936109
1.888889,0.72361809
1.891667,0.72361809
1.894444,0.71931084
1.897222,0.71643934
1.900000,0.71428571
1.902778,0.71141421
1.905556,0.71284996
1.908333,0.71284996
1.911111,0.71428571
1.913889,0.71141421
1.916667,0.71213209
1.919444,0.71213209
1.922222,0.71284996
1.925000,0.71284996
1.927778,0.70997846
1.930556,0.70997846
1.933333,0.70997846
1.936111,0.70926059
1.938889,0.70997846
1.941667,0.70926059
1.944444,0.70854271
1.947222,0.70926059
1.950000,0.71213209
1.952778,0.71213209
1.955556,0.71213209
1.958333,0.71141421
1.961111,0.71213209
1.963889,0.70782484
1.966667,0.70854271
1.969444,0.70854271
1.972222,0.70997846
1.975000,0.71141421
1.977778,0.71213209
1.980556,0.71356784
1.983333,0.71428571
1.986111,0.71213209
1.988889,0.71213209
1.991667,0.71213209
1.994444,0.71141421
1.997222,0.70926059
2.000000,0.71069634
2.002778,0.70997846
2.005556,0.70782484
2.008333,0.70854271
2.011111,0.70710696
2.013889,0.70710696
2.016667,0.70854271
2.019444,0.70854271
2.022222,0.71141421
2.025000,0.71213209
2.027778,0.71356784
2.030556,0.71141421
2.033333,0.70926059
2.036111,0.70567121
2.038889,0.70495334
2.041667,0.70638909
2.044444,0.70638909
2.047222,0.70782484
2.050000,0.71141421
2.052778,0.71069634
2.055556,0.71069634
2.058333,0.70926059
2.061111,0.70567121
2.063889,0.70351759
2.066667,0.70279971
2.069444,0.70064609
2.072222,0.70495334
2.075000,0.70567121
2.077778,0.70710696
2.080556,0.70638909
2.083333,0.70710696
2.086111,0.70567121
2.088889,0.70495334
2.091667,0.70279971
2.094444,0.70279971
2.097222,0.70351759
2.100000,0.70208184
2.102778,0.70351759
2.105556,0.70567121
2.108333,0.70638909
2.111111,0.70782484
2.113889,0.70567121
2.116667,0.70423546
2.119444,0.70495334
2.122222,0.70423546
2.125000,0.70208184
2.127778,0.70279971
2.130556,0.70279971
2.133333,0.70351759
2.136111,0.70423546
2.138889,0.70423546
2.141667,0.70279971
2.144444,0.70351759
2.147222,0.70495334
2.150000,0.70423546
2.152778,0.70423546
2.155556,0.70495334
2.158333,0.70495334
2.161111,0.70423546
2.163889,0.70423546
2.166667,0.70495334
2.169444,0.70710696
2.172222,0.70782484
2.175000,0.71284996
2.177778,0.71643934
2.180556,0.71715721
2.183333,0.72002872
2.186111,0.72002872
2.188889,0.71787509
2.191667,0.72002872
2.194444,0.71859296
2.197222,0.72290022
2.200000,0.72720747
2.202778,0.73007897
2.205556,0.73079684
2.208333,0.73007897
2.211111,0.73151472
2.213889,0.72936109
2.216667,0.72792534
2.219444,0.72720747
2.222222,0.72433597
2.225000,0.72218234
2.227778,0.72074659
2.230556,0.71572146
2.233333,0.71643934
2.236111,0.71141421
2.238889,0.70997846
2.241667,0.70782484
2.244444,0.70495334
2.247222,0.70136396
2.250000,0.70136396
2.252778,0.69849246
2.255556,0.69992821
2.258333,0.69992821
2.261111,0.69849246
2.263889,0.69849246
2.266667,0.69633884
2.269444,0.69562096
2.272222,0.69633884
2.275000,0.69633884
2.277778,0.69921034
2.280556,0.69849246
2.283333,0.69992821
2.286111,0.70064609
2.288889,0.70064609
2.291667,0.69921034
2.294444,0.69921034
2.297222,0.69992821
2.300000,0.69992821
2.302778,0.69777459
2.305556,0.69849246
2.308333,0.69777459
2.311111,0.69777459
2.313889,0.69777459
2.316667,0.69992821
2.319444,0.70064609
2.322222,0.69992821
2.325000,0.69490309
2.327778,0.68485284
2.330556,0.67264896
2.333333,0.66762383
2.336111,0.67264896
2.338889,0.69418521
2.341667,0.73941134
2.344444,0.79755922
2.347222,0.86001436
2.350000,0.91744436
2.352778,0.95262024
2.355556,0.95333812
2.358333,0.90811199
2.361111,0.83058148
2.363889,0.74587222
2.366667,0.68054559
2.369444,0.64536971
2.372222,0.63531945
2.375000,0.63747308
2.377778,0.64680546
2.380556,0.64752333
2.383333,0.64393396
2.386111,0.63244795
2.388889,0.61737258
2.391667,0.60588658
2.394444,0.59727207
2.397222,0.59511845
2.400000,0.59583632
2.402778,0.59942570
2.405556,0.60588658
2.408333,0.61665470
2.411111,0.62814070
2.413889,0.64034458
2.416667,0.65541996
2.419444,0.66618808
2.422222,0.67767408
2.425000,0.68628859
2.427778,0.69131371
2.430556,0.69562096
2.433333,0.69705671
2.436111,0.69633884
2.438889,0.70064609
2.441667,0.70279971
2.444444,0.70423546
2.447222,0.70638909
2.450000,0.70782484
2.452778,0.70926059
2.455556,0.70854271
2.458333,0.71141421
2.461111,0.70997846
2.463889,0.70926059
2.466667,0.70854271
2.469444,0.70926059
2.472222,0.70926059
2.475000,0.71069634
2.477778,0.71141421
2.480556,0.71213209
2.483333,0.71428571
2.486111,0.71572146
2.488889,0.71500359
2.491667,0.71500359
2.494444,0.71500359
2.497222,0.71572146
2.500000,0.71428571
2.502778,0.71356784
2.505556,0.71500359
2.508333,0.71643934
2.511111,0.71859296
2.513889,0.71931084
2.516667,0.72074659
2.519444,0.72146447
2.522222,0.72146447
2.525000,0.72074659
2.527778,0.72002872
2.530556,0.72074659
2.533333,0.72074659
2.536111,0.72002872
2.538889,0.72146447
2.541667,0.72290022
2.544444,0.72218234
2.547222,0.72361809
2.550000,0.72361809
2.552778,0.72720747
2.555556,0.72792534
2.558333,0.72936109
2.561111,0.73007897
2.563889,0.72864322
2.566667,0.72792534
2.569444,0.72792534
2.572222,0.72792534
2.575000,0.73223259
2.577778,0.73295047
2.580556,0.73438622
2.583333,0.73510409
2.586111,0.73725772
2.588889,0.73510409
2.591667,0.73582197
2.594444,0.73653984
2.597222,0.74012922
2.600000,0.74012922
2.602778,0.73869347
2.605556,0.74012922
2.608333,0.74084709
2.611111,0.74443647
2.613889,0.74371859
2.616667,0.74587222
2.619444,0.74730797
2.622222,0.74730797
2.625000,0.74946159
2.627778,0.75017947
2.630556,0.75017947
2.633333,0.75017947
2.636111,0.75305097
2.638889,0.75161522
2.641667,0.75233309
2.644444,0.75664034
2.647222,0.75807609
2.650000,0.76022972
2.652778,0.76094760
2.655556,0.76381910
2.658333,0.76381910
2.661111,0.76310122
2.663889,0.76381910
2.666667,0.76381910
2.669444,0.76453697
2.672222,0.76525485
2.675000,0.76812635
2.677778,0.76956210
2.680556,0.77171572
2.683333,0.77243360
2.686111,0.77315147
2.688889,0.77458722
2.691667,0.77530510
2.694444,0.77602297
2.697222,0.77745872
2.700000,0.77745872
2.702778,0.77674085
2.705556,0.77602297
2.708333,0.77602297
2.711111,0.77530510
2.713889,0.77530510
2.716667,0.77530510
2.719444,0.77458722
2.722222,0.77171572
2.725000,0.77027997
2.727778,0.76740847
2.730556,0.76310122
2.733333,0.76022972
2.736111,0.75735822
2.738889,0.75592247
2.741667,0.75233309
2.744444,0.75089734
2.747222,0.74802584
2.750000,0.74659009
2.752778,0.74300072
2.755556,0.73797559
2.758333,0.73941134
2.761111,0.73582197
2.763889,0.73295047
2.766667,0.72936109
2.769444,0.72720747
2.772222,0.72433597
2.775000,0.72074659
2.777778,0.71859296
2.780556,0.72002872
2.783333,0.71859296
2.786111,0.71787509
2.788889,0.71572146
2.791667,0.71500359
2.794444,0.71428571
2.797222,0.71356784
2.800000,0.71284996
2.802778,0.71356784
2.805556,0.71284996
2.808333,0.71356784
2.811111,0.71428571
2.813889,0.71500359
2.816667,0.71715721
2.819444,0.71572146
2.822222,0.71500359
2.825000,0.71643934
2.827778,0.71500359
2.830556,0.71500359
2.833333,0.71428571
2.836111,0.71428571
2.838889,0.71428571
2.841667,0.71643934
2.844444,0.71715721
2.847222,0.71931084
2.850000,0.71931084
2.852778,0.71931084
2.855556,0.71931084
2.858333,0.71859296
2.861111,0.71715721
2.863889,0.71715721
2.866667,0.71643934
2.869444,0.71500359
2.872222,0.71643934
2.875000,0.71715721
2.877778,0.71715721
2.880556,0.71859296
2.883333,0.72002872
2.886111,0.72002872
2.888889,0.71859296
2.891667,0.71715721
2.894444,0.71787509
2.897222,0.71356784
2.900000,0.71356784
2.902778,0.71141421
2.905556,0.71213209
2.908333,0.71428571
2.911111,0.71500359
2.913889,0.71500359
2.916667,0.71572146
2.919444,0.71500359
2.922222,0.71284996
2.925000,0.71141421
2.927778,0.71069634
2.930556,0.70782484
2.933333,0.70782484
2.936111,0.70710696
2.938889,0.70782484
2.941667,0.70854271
2.944444,0.70854271
2.947222,0.70854271
2.950000,0.70854271
2.952778,0.70926059
2.955556,0.70710696
2.958333,0.70782484
2.961111,0.70638909
2.963889,0.70567121
2.966667,0.70351759
2.969444,0.70423546
2.972222,0.70423546
2.975000,0.70423546
2.977778,0.70495334
2.980556,0.70495334
2.983333,0.70423546
2.986111,0.70638909
2.988889,0.70495334
2.991667,0.70423546
2.994444,0.70423546
2.997222,0.70279971
3.000000,0.70064609
3.002778,0.70136396
3.005556,0.70136396
3.008333,0.70064609
3.011111,0.70208184
3.013889,0.70351759
3.016667,0.70423546
3.019444,0.70208184
3.022222,0.70495334
3.025000,0.70495334
3.027778,0.70351759
3.030556,0.70064609
3.033333,0.70208184
3.036111,0.70279971
3.038889,0.70351759
3.041667,0.70495334
3.044444,0.70567121
3.047222,0.70926059
3.050000,0.71069634
3.052778,0.71069634
3.055556,0.70926059
3.058333,0.70926059
3.061111,0.71141421
3.063889,0.71213209
3.066667,0.71356784
3.069444,0.71500359
3.072222,0.71715721
3.075000,0.72074659
3.077778,0.72433597
3.080556,0.72792534
3.083333,0.73151472
3.086111,0.73079684
3.088889,0.73223259
3.091667,0.72792534
3.094444,0.72577172
3.097222,0.72290022
3.100000,0.72218234
3.102778,0.71859296
3.105556,0.71643934
3.108333,0.71428571
3.111111,0.71428571
3.113889,0.71284996
3.116667,0.71141421
3.119444,0.70782484
3.122222,0.70638909
3.125000,0.70351759
3.127778,0.69992821
3.130556,0.69777459
3.133333,0.69849246
3.136111,0.69777459
3.138889,0.69849246
3.141667,0.69849246
3.144444,0.69921034
3.147222,0.69921034
3.150000,0.69992821
3.152778,0.69849246
3.155556,0.69849246
3.158333,0.69777459
3.161111,0.69705671
3.163889,0.69562096
3.166667,0.69562096
3.169444,0.69633884
3.172222,0.69562096
3.175000,0.69633884
3.177778,0.69705671
3.180556,0.69849246
3.183333,0.69921034
3.186111,0.69705671
3.188889,0.69777459
3.191667,0.69633884
3.194444,0.69633884
3.197222,0.69418521
3.200000,0.69274946
3.202778,0.69059584
3.205556,0.68772434
3.208333,0.68269921
3.211111,0.67408471
3.213889,0.66403446
3.216667,0.66044508
3.219444,0.66475233
3.222222,0.68844221
3.225000,0.72648959
3.227778,0.77602297
3.230556,0.83273510
3.233333,0.88944724
3.236111,0.93539124
3.238889,0.95549174
3.241667,0.94328787
3.244444,0.89806174
3.247222,0.82842785
3.250000,0.75376884
3.252778,0.70064609
3.255556,0.67121321
3.258333,0.65972721
3.261111,0.65972721
3.263889,0.65900933
3.266667,0.65254846
3.269444,0.64106246
3.272222,0.62239770
3.275000,0.60732233
3.277778,0.59224695
3.280556,0.58506820
3.283333,0.58435032
3.286111,0.58578607
3.288889,0.59368270
3.291667,0.60445083
3.294444,0.61665470
3.297222,0.62957645
3.300000,0.64393396
3.302778,0.65613783
3.305556,0.66762383
3.308333,0.67623833
3.311111,0.68413496
3.313889,0.68844221
3.316667,0.69131371
3.319444,0.69203159
3.322222,0.69346734
3.325000,0.69490309
3.327778,0.69418521
3.330556,0.69418521
3.333333,0.69633884
3.336111,0.69633884
3.338889,0.69777459
3.341667,0.69777459
3.344444,0.69921034
3.347222,0.70208184
3.350000,0.70208184
3.352778,0.70351759
3.355556,0.70423546
3.358333,0.70351759
3.361111,0.70351759
3.363889,0.70351759
3.366667,0.70136396
3.369444,0.70136396
3.372222,0.70136396
3.375000,0.70351759
3.377778,0.70638909
3.380556,0.70710696
3.383333,0.70782484
3.386111,0.70854271
3.388889,0.70854271
3.391667,0.70926059
3.394444,0.70926059
3.397222,0.70638909
3.400000,0.70782484
3.402778,0.70782484
3.405556,0.70782484
3.408333,0.71141421
3.411111,0.71284996
3.413889,0.71356784
3.416667,0.71572146
3.419444,0.71428571
3.422222,0.71500359
3.425000,0.71500359
3.427778,0.71643934
3.430556,0.71715721
3.433333,0.71715721
3.436111,0.71859296
3.438889,0.72002872
3.441667,0.72002872
3.444444,0.72146447
3.447222,0.72505384
3.450000,0.72505384
3.452778,0.72648959
3.455556,0.72720747
3.458333,0.72864322
3.461111,0.72864322
3.463889,0.72936109
3.466667,0.72936109
3.469444,0.73079684
3.472222,0.73295047
3.475000,0.73438622
3.477778,0.73653984
3.480556,0.73725772
3.483333,0.74012922
3.486111,0.74012922
3.488889,0.74156497
3.491667,0.74443647
3.494444,0.74300072
3.497222,0.74515434
3.500000,0.74587222
3.502778,0.74874372
3.505556,0.75161522
3.508333,0.75305097
3.511111,0.75664034
3.513889,0.75807609
3.516667,0.76094760
3.519444,0.76238335
3.522222,0.76310122
3.525000,0.76597272
3.527778,0.76381910
3.530556,0.76597272
3.533333,0.76740847
3.536111,0.76956210
3.538889,0.77027997
3.541667,0.77243360
3.544444,0.77243360
3.547222,0.77602297
3.550000,0.77674085
3.552778,0.77817660
3.555556,0.77961235
3.558333,0.78033022
3.561111,0.78033022
3.563889,0.77961235
3.566667,0.78176597
3.569444,0.78033022
3.572222,0.77961235
3.575000,0.78248385
3.577778,0.78320172
3.580556,0.78535535
3.583333,0.78607322
3.586111,0.78607322
3.588889,0.78535535
3.591667,0.78391960
3.594444,0.78248385
3.597222,0.77961235
3.600000,0.77745872
3.602778,0.77530510
3.605556,0.77458722
3.608333,0.77171572
3.611111,0.77027997
3.613889,0.77027997
3.616667,0.76812635
3.619444,0.76525485
3.622222,0.76166547
3.625000,0.75807609
3.627778,0.75376884
3.630556,0.75089734
3.633333,0.74730797
3.636111,0.74371859
3.638889,0.74156497
3.641667,0.74084709
3.644444,0.73869347
3.647222,0.73653984
3.650000,0.73582197
3.652778,0.73295047
3.655556,0.73079684
3.658333,0.72864322
3.661111,0.72505384
3.663889,0.72218234
3.666667,0.72002872
3.669444,0.71859296
3.672222,0.71643934
3.675000,0.71643934
3.677778,0.71500359
3.680556,0.71356784
3.683333,0.71356784
3.686111,0.71500359
3.688889,0.71572146
3.691667,0.71428571
3.694444,0.71284996
3.697222,0.71284996
3.700000,0.71069634
3.702778,0.70854271
3.705556,0.70997846
3.708333,0.70926059
3.711111,0.70854271
3.713889,0.71213209
3.716667,0.71356784
3.719444,0.71213209
3.722222,0.71284996
3.725000,0.71356784
3.727778,0.71141421
3.730556,0.71141421
3.733333,0.71141421
3.736111,0.70997846
3.738889,0.70997846
3.741667,0.71141421
3.744444,0.71069634
3.747222,0.71141421
3.750000,0.71284996
3.752778,0.71500359
3.755556,0.71500359
3.758333,0.71500359
3.761111,0.71284996
3.763889,0.71500359
3.766667,0.71356784
3.769444,0.71213209
3.772222,0.71141421
3.775000,0.71356784
3.777778,0.71356784
3.780556,0.71500359
3.783333,0.71500359
3.786111,0.71428571
3.788889,0.71213209
3.791667,0.71141421
3.794444,0.71141421
3.797222,0.71213209
3.800000,0.71069634
3.802778,0.71213209
3.805556,0.71069634
3.808333,0.71141421
3.811111,0.70997846
3.813889,0.71213209
3.816667,0.71213209
3.819444,0.70997846
3.822222,0.71141421
3.825000,0.71141421
3.827778,0.71069634
3.830556,0.70854271
3.833333,0.70710696
3.836111,0.70638909
3.838889,0.70710696
3.841667,0.70710696
3.844444,0.70710696
3.847222,0.70854271
3.850000,0.70854271
3.852778,0.70926059
3.855556,0.70926059
3.858333,0.70854271
3.861111,0.70710696
3.863889,0.70567121
3.866667,0.70567121
3.869444,0.70423546
3.872222,0.70423546
3.875000,0.70423546
3.877778,0.70351759
3.880556,0.70638909
3.883333,0.70710696
3.886111,0.70710696
3.888889,0.70710696
3.891667,0.70710696
3.894444,0.70567121
3.897222,0.70495334
3.900000,0.70351759
3.902778,0.70351759
3.905556,0.70279971
3.908333,0.70279971
3.911111,0.70208184
3.913889,0.70423546
3.916667,0.70495334
3.919444,0.70567121
3.922222,0.70423546
3.925000,0.70495334
3.927778,0.70423546
3.930556,0.70279971
3.933333,0.70136396
3.936111,0.70208184
3.938889,0.70208184
3.941667,0.70351759
3.944444,0.70351759
3.947222,0.70495334
3.950000,0.70638909
3.952778,0.70567121
3.955556,0.70782484
3.958333,0.70351759
3.961111,0.70495334
3.963889,0.70423546
3.966667,0.70423546
3.969444,0.70351759
3.972222,0.70351759
3.975000,0.70423546
3.977778,0.70638909
3.980556,0.70782484
3.983333,0.70926059
3.986111,0.70997846
3.988889,0.70997846
3.991667,0.71069634
3.994444,0.71213209
3.997222,0.71213209
4.000000,0.71213209
4.002778,0.71284996
4.005556,0.71356784
4.008333,0.71500359
4.011111,0.71715721
4.013889,0.71859296
4.016667,0.72146447
4.019444,0.72433597
4.022222,0.72720747
4.025000,0.72864322
4.027778,0.73079684
4.030556,0.73079684
4.033333,0.73007897
4.036111,0.72792534
4.038889,0.72792534
4.041667,0.72648959
4.044444,0.72577172
4.047222,0.72648959
4.050000,0.72505384
4.052778,0.72290022
4.055556,0.72290022
4.058333,0.72002872
4.061111,0.71787509
4.063889,0.71356784
4.066667,0.70997846
4.069444,0.70926059
4.072222,0.70495334
4.075000,0.70279971
4.077778,0.70208184
4.080556,0.69992821
4.083333,0.70279971
4.086111,0.70208184
4.088889,0.70208184
4.091667,0.70136396
4.094444,0.70064609
4.097222,0.69992821
4.100000,0.69921034
4.102778,0.69921034
4.105556,0.69921034
4.108333,0.69992821
4.111111,0.69849246
4.113889,0.70064609
4.116667,0.70136396
4.119444,0.70136396
4.122222,0.70208184
4.125000,0.69992821
4.127778,0.69921034
4.130556,0.69992821
4.133333,0.69849246
4.136111,0.69849246
4.138889,0.69777459
4.141667,0.69992821
4.144444,0.70064609
4.147222,0.70136396
4.150000,0.70136396
4.152778,0.70136396
4.155556,0.70136396
4.158333,0.69921034
4.161111,0.69490309
4.163889,0.68844221
4.166667,0.68126346
4.169444,0.67336683
4.172222,0.66403446
4.175000,0.65972721
4.177778,0.66475233
4.180556,0.68341709
4.183333,0.71572146
4.186111,0.75807609
4.188889,0.80904523
4.191667,0.86288586
4.194444,0.91026561
4.197222,0.94544149
4.200000,0.95692749
4.202778,0.94041637
4.205556,0.89160086
4.208333,0.82412060
4.211111,0.75807609
4.213889,0.70710696
4.216667,0.68054559
4.219444,0.67049533
4.222222,0.67121321
4.225000,0.67408471
4.227778,0.67193108
4.230556,0.66044508
4.233333,0.64465183
4.236111,0.62526920
4.238889,0.60804020
4.241667,0.59224695
4.244444,0.58650395
4.247222,0.58363245
4.250000,0.58650395
4.252778,0.59081120
4.255556,0.60014358
4.258333,0.61019383
4.261111,0.62167983
4.263889,0.63460158
4.266667,0.64608758
4.269444,0.65829146
4.272222,0.66977746
4.275000,0.67839196
4.277778,0.68628859
4.280556,0.69131371
4.283333,0.69633884
4.286111,0.69633884
4.288889,0.69849246
4.291667,0.69921034
4.294444,0.70064609
4.297222,0.69992821
4.300000,0.69992821
4.302778,0.69921034
4.305556,0.70064609
4.308333,0.70136396
4.311111,0.70279971
4.313889,0.70423546
4.316667,0.70567121
4.319444,0.70567121
4.322222,0.70854271
4.325000,0.70567121
4.327778,0.70567121
4.330556,0.70567121
4.333333,0.70423546
4.336111,0.70351759
4.338889,0.70495334
4.341667,0.70782484
4.344444,0.71069634
4.347222,0.71284996
4.350000,0.71572146
4.352778,0.71356784
4.355556,0.71428571
4.358333,0.71500359
4.361111,0.71572146
4.363889,0.71428571
4.366667,0.71428571
4.369444,0.71428571
4.372222,0.71572146
4.375000,0.71428571
4.377778,0.71572146
4.380556,0.71715721
4.383333,0.71787509
4.386111,0.71787509
4.388889,0.71859296
4.391667,0.72002872
4.394444,0.72074659
4.397222,0.72074659
4.400000,0.72218234
4.402778,0.72433597
4.405556,0.72505384
4.408333,0.72433597
4.411111,0.72577172
4.413889,0.72864322
4.416667,0.72936109
4.419444,0.72936109
4.422222,0.73007897
4.425000,0.73007897
4.427778,0.73079684
4.430556,0.73151472
4.433333,0.73295047
4.436111,0.73438622
4.438889,0.73582197
4.441667,0.73582197
4.444444,0.73941134
4.447222,0.74371859
4.450000,0.74515434
4.452778,0.74587222
4.455556,0.74874372
4.458333,0.74874372
4.461111,0.74946159
4.463889,0.75233309
4.466667,0.75089734
4.469444,0.75305097
4.472222,0.75520459
4.475000,0.75879397
4.477778,0.76022972
4.480556,0.76310122
4.483333,0.76525485
4.486111,0.76669060
4.488889,0.76812635
4.491667,0.76525485
4.494444,0.76740847
4.497222,0.77099785
4.500000,0.77243360
4.502778,0.77243360
4.505556,0.77458722
4.508333,0.77602297
4.511111,0.77817660
4.513889,0.77961235
4.516667,0.78104810
4.519444,0.78176597
4.522222,0.78248385
4.525000,0.78463747
4.527778,0.78607322
4.530556,0.78750897
4.533333,0.78750897
4.536111,0.78822685
4.538889,0.79109835
4.541667,0.79396985
4.544444,0.79325197
4.547222,0.79325197
4.550000,0.79612347
4.552778,0.79253410
4.555556,0.79181622
4.558333,0.78894472
4.561111,0.78607322
4.563889,0.78104810
4.566667,0.77602297
4.569444,0.77386935
4.572222,0.77171572
4.575000,0.77171572
4.577778,0.76956210
4.580556,0.76956210
4.583333,0.76812635
4.586111,0.76525485
4.588889,0.75951184
4.591667,0.75520459
4.594444,0.75089734
4.597222,0.74587222
4.600000,0.74156497
4.602778,0.73869347
4.605556,0.73582197
4.608333,0.73653984
4.611111,0.73438622
4.613889,0.73510409
4.616667,0.73582197
4.619444,0.73295047
4.622222,0.72936109
4.625000,0.72577172
4.627778,0.72361809
4.630556,0.72146447
4.633333,0.72146447
4.636111,0.72146447
4.638889,0.72146447
4.641667,0.72074659
4.644444,0.72074659
4.647222,0.72002872
4.650000,0.71931084
4.652778,0.71643934
4.655556,0.71356784
4.658333,0.71213209
4.661111,0.71284996
4.663889,0.71141421
4.666667,0.70926059
4.669444,0.71069634
4.672222,0.71069634
4.675000,0.71356784
4.677778,0.71284996
4.680556,0.71715721
4.683333,0.71859296
4.686111,0.71787509
4.688889,0.71931084
4.691667,0.71715721
4.694444,0.71643934
4.697222,0.71213209
4.700000,0.71284996
4.702778,0.71069634
4.705556,0.71284996
4.708333,0.71284996
4.711111,0.71428571
4.713889,0.71643934
4.716667,0.71715721
4.719444,0.71643934
4.722222,0.71787509
4.725000,0.71428571
4.727778,0.71213209
4.730556,0.71284996
4.733333,0.71213209
4.736111,0.71213209
4.738889,0.71213209
4.741667,0.71356784
4.744444,0.71428571
4.747222,0.71356784
4.750000,0.71356784
4.752778,0.71356784
4.755556,0.71356784
4.758333,0.71284996
4.761111,0.71141421
4.763889,0.71069634
4.766667,0.70997846
4.769444,0.70926059
4.772222,0.70854271
4.775000,0.70710696
4.777778,0.70854271
4.780556,0.70926059
4.783333,0.70926059
4.786111,0.70926059
4.788889,0.70997846
4.791667,0.70997846
4.794444,0.70926059
4.797222,0.70854271
4.800000,0.70710696
4.802778,0.70854271
4.805556,0.70854271
4.808333,0.70710696
4.811111,0.70997846
4.813889,0.70926059
4.816667,0.71069634
4.819444,0.70782484
4.822222,0.70782484
4.825000,0.70926059
4.827778,0.70710696
4.830556,0.70351759
4.833333,0.70351759
4.836111,0.70208184
4.838889,0.70136396
4.841667,0.70279971
4.844444,0.70351759
4.847222,0.70423546
4.850000,0.70423546
4.852778,0.70495334
4.855556,0.70638909
4.858333,0.70567121
4.861111,0.70710696
4.863889,0.70710696
4.866667,0.70854271
4.869444,0.70854271
4.872222,0.70638909
4.875000,0.70710696
4.877778,0.70567121
4.880556,0.70638909
4.883333,0.70782484
4.886111,0.70710696
4.888889,0.70638909
4.891667,0.70710696
4.894444,0.70854271
4.897222,0.70926059
4.900000,0.71213209
4.902778,0.71572146
4.905556,0.71572146
4.908333,0.71787509
4.911111,0.71859296
4.913889,0.71787509
4.916667,0.71859296
4.919444,0.71931084
4.922222,0.71931084
4.925000,0.72218234
4.927778,0.72433597
4.930556,0.72720747
4.933333,0.72720747
4.936111,0.72936109
4.938889,0.72936109
4.941667,0.73079684
4.944444,0.73223259
4.947222,0.73223259
4.950000,0.73007897
4.952778,0.72648959
4.955556,0.72433597
4.958333,0.72290022
4.961111,0.72002872
4.963889,0.71787509
4.966667,0.71356784
4.969444,0.70997846
4.972222,0.70854271
4.975000,0.70567121
4.977778,0.70279971
4.980556,0.70208184
4.983333,0.70208184
4.986111,0.70423546
4.988889,0.70423546
4.991667,0.70567121
4.994444,0.70495334
4.997222,0.70279971
5.000000,0.70064609
5.002778,0.69705671
5.005556,0.69705671
5.008333,0.69705671
5.011111,0.69777459
5.013889,0.69992821
5.016667,0.70351759
5.019444,0.70279971
5.022222,0.70279971
5.025000,0.70136396
5.027778,0.69849246
5.030556,0.69705671
5.033333,0.69633884
5.036111,0.69633884
5.038889,0.69849246
5.041667,0.69992821
5.044444,0.70136396
5.047222,0.70351759
5.050000,0.70423546
5.052778,0.70208184
5.055556,0.70351759
5.058333,0.69921034
5.061111,0.69346734
5.063889,0.68413496
5.066667,0.67264896
5.069444,0.66618808
5.072222,0.66762383
5.075000,0.68844221
5.077778,0.72361809
5.080556,0.77602297
5.083333,0.83560660
5.086111,0.89231874
5.088889,0.93826274
5.091667,0.96051687
5.094444,0.94759512
5.097222,0.89662599
5.100000,0.81550610
5.102778,0.73653984
5.105556,0.67552046
5.108333,0.64536971
5.111111,0.64034458
5.113889,0.64680546
5.116667,0.65398421
5.119444,0.65254846
5.122222,0.64824121
5.125000,0.63460158
5.127778,0.61737258
5.130556,0.60445083
5.133333,0.59583632
5.136111,0.59224695
5.138889,0.59224695
5.141667,0.59798995
5.144444,0.60875808
5.147222,0.62239770
5.150000,0.63675520
5.152778,0.65111271
5.155556,0.66331658
5.158333,0.67336683
5.161111,0.68126346
5.163889,0.68916009
5.166667,0.69274946
5.169444,0.69705671
5.172222,0.69992821
5.175000,0.70208184
5.177778,0.70495334
5.180556,0.70567121
5.183333,0.70782484
5.186111,0.70926059
5.188889,0.70854271
5.191667,0.70782484
5.194444,0.70710696
5.197222,0.70638909
5.200000,0.70710696
5.202778,0.70926059
5.205556,0.71141421
5.208333,0.71356784
5.211111,0.71787509
5.213889,0.71715721
5.216667,0.71931084
5.219444,0.71787509
5.222222,0.71572146
5.225000,0.71428571
5.227778,0.71284996
5.230556,0.71069634
5.233333,0.71141421
5.236111,0.71428571
5.238889,0.71787509
5.241667,0.72146447
5.244444,0.72361809
5.247222,0.72433597
5.250000,0.72577172
5.252778,0.72361809
5.255556,0.72218234
5.258333,0.71931084
5.261111,0.71859296
5.263889,0.71787509
5.266667,0.71787509
5.269444,0.72074659
5.272222,0.72290022
5.275000,0.72433597
5.277778,0.72792534
5.280556,0.73151472
5.283333,0.73366834
5.286111,0.73366834
5.288889,0.73295047
5.291667,0.73151472
5.294444,0.73223259
5.297222,0.73079684
5.300000,0.73151472
5.302778,0.73366834
5.305556,0.73438622
5.308333,0.73438622
5.311111,0.73582197
5.313889,0.73797559
5.316667,0.74228284
5.319444,0.74443647
5.322222,0.74802584
5.325000,0.74874372
5.327778,0.74730797
5.330556,0.74587222
5.333333,0.74443647
5.336111,0.74515434
5.338889,0.74587222
5.341667,0.74659009
5.344444,0.74946159
5.347222,0.75089734
5.350000,0.75520459
5.352778,0.75664034
5.355556,0.75879397
5.358333,0.76022972
5.361111,0.76166547
5.363889,0.76238335
5.366667,0.76310122
5.369444,0.76381910
5.372222,0.76453697
5.375000,0.76597272
5.377778,0.76812635
5.380556,0.77027997
5.383333,0.77315147
5.386111,0.77530510
5.388889,0.77602297
5.391667,0.77602297
5.394444,0.77602297
5.397222,0.77745872
5.400000,0.77889447
5.402778,0.77889447
5.405556,0.78248385
5.408333,0.78320172
5.411111,0.78679110
5.413889,0.78607322
5.416667,0.78894472
5.419444,0.78966260
5.422222,0.78966260
5.425000,0.78822685
5.427778,0.78607322
5.430556,0.78391960
5.433333,0.78104810
5.436111,0.78104810
5.438889,0.77674085
5.441667,0.77817660
5.444444,0.77674085
5.447222,0.77458722
5.450000,0.77315147
5.452778,0.77099785
5.455556,0.76884422
5.458333,0.76381910
5.461111,0.76022972
5.463889,0.75879397
5.466667,0.75448672
5.469444,0.75161522
5.472222,0.74874372
5.475000,0.74443647
5.477778,0.74228284
5.480556,0.73941134
5.483333,0.73941134
5.486111,0.73653984
5.488889,0.73438622
5.491667,0.73438622
5.494444,0.73151472
5.497222,0.72792534
5.500000,0.72648959
5.502778,0.72577172
5.505556,0.72361809
5.508333,0.72290022
5.511111,0.72218234
5.513889,0.72218234
5.516667,0.72074659
5.519444,0.72146447
5.522222,0.72074659
5.525000,0.72002872
5.527778,0.71859296
5.530556,0.71859296
5.533333,0.71715721
5.536111,0.71715721
5.538889,0.71859296
5.541667,0.71643934
5.544444,0.71715721
5.547222,0.71931084
5.550000,0.71931084
5.552778,0.72002872
5.555556,0.72074659
5.558333,0.72002872
5.561111,0.72074659
5.563889,0.72074659
5.566667,0.71931084
5.569444,0.72002872
5.572222,0.72002872
5.575000,0.72146447
5.577778,0.72002872
5.580556,0.72074659
5.583333,0.72146447
5.586111,0.72218234
5.588889,0.72218234
5.591667,0.72433597
5.594444,0.72361809
5.597222,0.72361809
5.600000,0.72146447
5.602778,0.72074659
5.605556,0.72074659
5.608333,0.72002872
5.611111,0.72002872
5.613889,0.72146447
5.616667,0.72146447
5.619444,0.72146447
5.622222,0.71931084
5.625000,0.71931084
5.627778,0.71643934
5.630556,0.71500359
5.633333,0.71356784
5.636111,0.71356784
5.638889,0.71500359
5.641667,0.71428571
5.644444,0.71572146
5.647222,0.71500359
5.650000,0.71572146
5.652778,0.71572146
5.655556,0.71356784
5.658333,0.71284996
5.661111,0.71141421
5.663889,0.71284996
5.666667,0.71069634
5.669444,0.71069634
5.672222,0.70926059
5.675000,0.70997846
5.677778,0.70710696
5.680556,0.70997846
5.683333,0.71213209
5.686111,0.71284996
5.688889,0.71356784
5.691667,0.71284996
5.694444,0.71213209
5.697222,0.71069634
5.700000,0.70926059
5.702778,0.70997846
5.705556,0.70926059
5.708333,0.70926059
5.711111,0.70926059
5.713889,0.70997846
5.716667,0.71069634
5.719444,0.71069634
5.722222,0.71069634
5.725000,0.71069634
5.727778,0.70997846
5.730556,0.70926059
5.733333,0.70997846
5.736111,0.70854271
5.738889,0.70997846
5.741667,0.71213209
5.744444,0.71284996
5.747222,0.71572146
5.750000,0.71715721
5.752778,0.71787509
5.755556,0.71859296
5.758333,0.71859296
5.761111,0.71859296
5.763889,0.71859296
5.766667,0.72146447
5.769444,0.72361809
5.772222,0.72648959
5.775000,0.72864322
5.777778,0.73223259
5.780556,0.73366834
5.783333,0.73510409
5.786111,0.73295047
5.788889,0.73223259
5.791667,0.73007897
5.794444,0.72720747
5.797222,0.72433597
5.800000,0.72218234
5.802778,0.72074659
5.805556,0.72002872
5.808333,0.71859296
5.811111,0.71787509
5.813889,0.71572146
5.816667,0.71428571
5.819444,0.71069634
5.822222,0.70854271
5.825000,0.70495334
5.827778,0.70279971
5.830556,0.70136396
5.833333,0.70064609
5.836111,0.69992821
5.838889,0.70064609
5.841667,0.70136396
5.844444,0.70064609
5.847222,0.70064609
5.850000,0.70136396
5.852778,0.70064609
5.855556,0.69921034
5.858333,0.69777459
5.861111,0.69777459
5.863889,0.69705671
5.866667,0.69633884
5.869444,0.69705671
5.872222,0.69633884
5.875000,0.69777459
5.877778,0.69705671
5.880556,0.69921034
5.883333,0.70064609
5.886111,0.69921034
5.888889,0.69921034
5.891667,0.69921034
5.894444,0.69777459
5.897222,0.69705671
5.900000,0.69633884
5.902778,0.69633884
5.905556,0.69562096
5.908333,0.69705671
5.911111,0.69849246
5.913889,0.69921034
5.916667,0.69921034
5.919444,0.69705671
5.922222,0.69992821
5.925000,0.69992821
5.927778,0.69921034
5.930556,0.69562096
5.933333,0.69705671
5.936111,0.69562096
5.938889,0.69633884
5.941667,0.69777459
5.944444,0.69849246
5.947222,0.69921034
5.950000,0.69777459
5.952778,0.69921034
5.955556,0.69921034
5.958333,0.69849246
5.961111,0.69777459
5.963889,0.69705671
5.966667,0.69705671
5.969444,0.69562096
5.972222,0.69562096
5.975000,0.69562096
5.977778,0.69633884
5.980556,0.69777459
5.983333,0.69849246
5.986111,0.69921034
5.988889,0.69921034
5.991667,0.69705671
5.994444,0.69777459
5.997222,0.69562096
6.000000,0.69633884
6.002778,0.69777459
6.005556,0.69633884
6.008333,0.69849246
6.011111,0.69777459
6.013889,0.69849246
6.016667,0.70064609
6.019444,0.69992821
6.022222,0.70064609
6.025000,0.69992821
6.027778,0.69921034
6.030556,0.69849246
6.033333,0.69849246
6.036111,0.69921034
6.038889,0.69777459
6.041667,0.69777459
6.044444,0.69777459
6.047222,0.69849246
6.050000,0.69992821
6.052778,0.69921034
6.055556,0.69992821
6.058333,0.69992821
6.061111,0.69992821
6.063889,0.69921034
6.066667,0.69849246
6.069444,0.69849246
6.072222,0.69777459
6.075000,0.69705671
6.077778,0.69777459
6.080556,0.69921034
6.083333,0.70208184
6.086111,0.70208184
6.088889,0.70279971
6.091667,0.69992821
6.094444,0.70064609
6.097222,0.69992821
6.100000,0.70064609
6.102778,0.69992821
6.105556,0.70064609
6.108333,0.70064609
6.111111,0.70208184
6.113889,0.70279971
6.116667,0.70279971
6.119444,0.70351759
6.122222,0.70423546
6.125000,0.70351759
6.127778,0.70495334
6.130556,0.70351759
6.133333,0.70279971
6.136111,0.70279971
6.138889,0.70495334
6.141667,0.70495334
6.144444,0.70423546
6.147222,0.70638909
6.150000,0.70710696
6.152778,0.70782484
6.155556,0.70782484
6.158333,0.70782484
6.161111,0.70710696
6.163889,0.70423546
6.166667,0.70567121
6.169444,0.70567121
6.172222,0.70567121
6.175000,0.70710696
6.177778,0.70638909
6.180556,0.70854271
6.183333,0.70782484
6.186111,0.70710696
6.188889,0.70926059
6.191667,0.70926059
6.194444,0.70997846
6.197222,0.70926059
6.200000,0.70638909
6.202778,0.70782484
6.205556,0.70710696
6.208333,0.70782484
6.211111,0.70997846
6.213889,0.71141421
6.216667,0.71141421
6.219444,0.71141421
6.222222,0.71069634
6.225000,0.71069634
6.227778,0.70997846
6.230556,0.70926059
6.233333,0.70926059
6.236111,0.70926059
6.238889,0.70782484
6.241667,0.71069634
6.244444,0.70854271
6.247222,0.70926059
6.250000,0.70926059
6.252778,0.70854271
6.255556,0.70926059
6.258333,0.71141421
6.261111,0.70926059
6.263889,0.70926059
6.266667,0.70997846
6.269444,0.70926059
6.272222,0.70854271
6.275000,0.70854271
6.277778,0.71069634
6.280556,0.71141421
6.283333,0.71213209
6.286111,0.71141421
6.288889,0.71356784
6.291667,0.71069634
6.294444,0.70854271
6.297222,0.70854271
6.300000,0.70926059
6.302778,0.70997846
6.305556,0.70997846
6.308333,0.71141421
6.311111,0.71141421
6.313889,0.71284996
6.316667,0.71500359
6.319444,0.71284996
6.322222,0.71284996
6.325000,0.71356784
6.327778,0.71284996
6.330556,0.71284996
6.333333,0.71213209
6.336111,0.71069634
6.338889,0.71069634
6.341667,0.71141421
6.344444,0.71213209
6.347222,0.71213209
6.350000,0.71428571
6.352778,0.71428571
6.355556,0.71428571
6.358333,0.71284996
6.361111,0.71284996
6.363889,0.71284996
6.366667,0.71069634
6.369444,0.71213209
6.372222,0.71069634
6.375000,0.71069634
6.377778,0.71356784
6.380556,0.71213209
6.383333,0.71284996
6.386111,0.71356784
6.388889,0.71500359
6.391667,0.71428571
6.394444,0.71500359
6.397222,0.71500359
6.400000,0.71284996
6.402778,0.71213209
6.405556,0.71284996
6.408333,0.71284996
6.411111,0.71356784
6.413889,0.71500359
6.416667,0.71572146
6.419444,0.71787509
6.422222,0.71643934
6.425000,0.71500359
6.427778,0.71572146
6.430556,0.71284996
6.433333,0.71356784
6.436111,0.71356784
6.438889,0.71500359
6.441667,0.71356784
6.444444,0.71572146
6.447222,0.71572146
6.450000,0.71859296
6.452778,0.71859296
6.455556,0.71787509
6.458333,0.71859296
6.461111,0.71859296
6.463889,0.71643934
6.466667,0.71715721
6.469444,0.71715721
6.472222,0.71715721
6.475000,0.71715721
6.477778,0.71643934
6.480556,0.71715721
6.483333,0.72002872
6.486111,0.72002872
6.488889,0.71787509
6.491667,0.71931084
6.494444,0.71859296
6.497222,0.71715721
6.500000,0.71572146
6.502778,0.71643934
6.505556,0.71715721
6.508333,0.71643934
6.511111,0.71715721
6.513889,0.71715721
6.516667,0.72074659
6.519444,0.71931084
6.522222,0.71931084
6.525000,0.71931084
6.527778,0.71931084
6.530556,0.71859296
6.533333,0.71787509
6.536111,0.71715721
6.538889,0.71500359
6.541667,0.71859296
6.544444,0.71859296
6.547222,0.71787509
6.550000,0.71931084
6.552778,0.71931084
6.555556,0.72074659
6.558333,0.71859296
6.561111,0.71787509
6.563889,0.71715721
6.566667,0.71787509
6.569444,0.71787509
6.572222,0.71787509
6.575000,0.71931084
6.577778,0.72002872
6.580556,0.72002872
6.583333,0.72074659
6.586111,0.72146447
6.588889,0.72146447
6.591667,0.72218234
6.594444,0.72146447
6.597222,0.72146447
6.600000,0.72002872
6.602778,0.71931084
6.605556,0.72074659
6.608333,0.71931084
6.611111,0.72074659
6.613889,0.72074659
6.616667,0.72290022
6.619444,0.72290022
6.622222,0.72290022
6.625000,0.72433597
6.627778,0.72361809
6.630556,0.72361809
6.633333,0.72433597
6.636111,0.72577172
6.638889,0.72648959
6.641667,0.72936109
6.644444,0.72936109
6.647222,0.73007897
6.650000,0.73366834
6.652778,0.73438622
6.655556,0.73438622
6.658333,0.73582197
6.661111,0.73725772
6.663889,0.74012922
6.666667,0.74156497
6.669444,0.74228284
6.672222,0.74802584
6.675000,0.74946159
6.677778,0.74946159
6.680556,0.75017947
6.683333,0.75017947
6.686111,0.74946159
6.688889,0.74730797
6.691667,0.74443647
6.694444,0.74084709
6.697222,0.73941134
6.700000,0.73869347
6.702778,0.73438622
6.705556,0.73223259
6.708333,0.73151472
6.711111,0.73079684
6.713889,0.72720747
6.716667,0.72648959
6.719444,0.72290022
6.722222,0.72290022
6.725000,0.72218234
6.727778,0.72146447
6.730556,0.71859296
6.733333,0.71859296
6.736111,0.71715721
6.738889,0.71787509
6.741667,0.71859296
6.744444,0.71931084
6.747222,0.71787509
6.750000,0.71931084
6.752778,0.71715721
6.755556,0.71715721
6.758333,0.71931084
6.761111,0.71931084
6.763889,0.71715721
6.766667,0.71715721
6.769444,0.71787509
6.772222,0.71715721
6.775000,0.71715721
6.777778,0.71859296
6.780556,0.71787509
6.783333,0.72074659
6.786111,0.72002872
6.788889,0.71931084
6.791667,0.71787509
6.794444,0.71428571
6.797222,0.70782484
6.800000,0.70208184
6.802778,0.69203159
6.805556,0.68269921
6.808333,0.68054559
6.811111,0.68987796
6.813889,0.71356784
6.816667,0.75233309
6.819444,0.80043073
6.822222,0.85355348
6.825000,0.90739411
6.827778,0.95333812
6.830556,0.98707825
6.833333,1.00000000
6.836111,0.98707825
6.838889,0.94400574
6.841667,0.88298636
6.844444,0.82124910
6.847222,0.77386935
6.850000,0.74730797
6.852778,0.73797559
6.855556,0.73797559
6.858333,0.74587222
6.861111,0.74946159
6.863889,0.75089734
6.866667,0.74659009
6.869444,0.73941134
6.872222,0.73295047
6.875000,0.72505384
6.877778,0.72002872
6.880556,0.71859296
6.883333,0.72074659
6.886111,0.71931084
6.888889,0.72002872
6.891667,0.71931084
6.894444,0.71859296
6.897222,0.71643934
6.900000,0.71500359
6.902778,0.71356784
6.905556,0.71284996
6.908333,0.71213209
6.911111,0.71284996
6.913889,0.71284996
6.916667,0.71428571
6.919444,0.71428571
6.922222,0.71356784
6.925000,0.71213209
6.927778,0.71069634
6.930556,0.71141421
6.933333,0.70997846
6.936111,0.70926059
6.938889,0.70926059
6.941667,0.70926059
6.944444,0.71141421
6.947222,0.71284996
6.950000,0.71428571
6.952778,0.71428571
6.955556,0.71572146
6.958333,0.71572146
6.961111,0.71356784
6.963889,0.71284996
6.966667,0.71141421
6.969444,0.71213209
6.972222,0.71284996
6.975000,0.71356784
6.977778,0.71428571
6.980556,0.71572146
6.983333,0.71500359
6.986111,0.71572146
6.988889,0.71500359
6.991667,0.71643934
6.994444,0.71643934
6.997222,0.71572146
7.000000,0.71572146
7.002778,0.71572146
7.005556,0.71500359
7.008333,0.71428571
7.011111,0.71500359
7.013889,0.71715721
7.016667,0.71859296
7.019444,0.71931084
7.022222,0.71787509
7.025000,0.71715721
7.027778,0.71715721
7.030556,0.71643934
7.033333,0.71643934
7.036111,0.71859296
7.038889,0.72002872
7.041667,0.72074659
7.044444,0.72074659
7.047222,0.72146447
7.050000,0.72361809
7.052778,0.72505384
7.055556,0.72433597
7.058333,0.72505384
7.061111,0.72361809
7.063889,0.72505384
7.066667,0.72290022
7.069444,0.72433597
7.072222,0.72433597
7.075000,0.72433597
7.077778,0.72720747
7.080556,0.72648959
7.083333,0.72864322
7.086111,0.73007897
7.088889,0.73079684
7.091667,0.73007897
7.094444,0.72864322
7.097222,0.72936109
7.100000,0.72936109
7.102778,0.72720747
7.105556,0.72720747
7.108333,0.72720747
7.111111,0.72792534
7.113889,0.72936109
7.116667,0.73079684
7.119444,0.73366834
7.122222,0.73366834
7.125000,0.73366834
7.127778,0.73295047
7.130556,0.73366834
7.133333,0.73223259
7.136111,0.73295047
7.138889,0.73366834
7.141667,0.73438622
7.144444,0.73725772
7.147222,0.74012922
7.150000,0.74156497
7.152778,0.74443647
7.155556,0.74515434
7.158333,0.74730797
7.161111,0.74802584
7.163889,0.75089734
7.166667,0.75161522
7.169444,0.75017947
7.172222,0.75233309
7.175000,0.75376884
7.177778,0.75520459
7.180556,0.75879397
7.183333,0.76166547
7.186111,0.76381910
7.188889,0.76525485
7.191667,0.76669060
7.194444,0.76812635
7.197222,0.77171572
7.200000,0.77171572
7.202778,0.77458722
7.205556,0.77602297
7.208333,0.77745872
7.211111,0.77817660
7.213889,0.78176597
7.216667,0.78248385
7.219444,0.78463747
7.222222,0.78391960
7.225000,0.78320172
7.227778,0.78248385
7.230556,0.77961235
7.233333,0.77745872
7.236111,0.77602297
7.238889,0.77530510
7.241667,0.77530510
7.244444,0.77602297
7.247222,0.77674085
7.250000,0.77674085
7.252778,0.77386935
7.255556,0.77171572
7.258333,0.76956210
7.261111,0.76669060
7.263889,0.76310122
7.266667,0.76094760
7.269444,0.75592247
7.272222,0.75592247
7.275000,0.75376884
7.277778,0.75520459
7.280556,0.75592247
7.283333,0.75305097
7.286111,0.75305097
7.288889,0.75161522
7.291667,0.75233309
7.294444,0.75089734
7.297222,0.74730797
7.300000,0.74659009
7.302778,0.74300072
7.305556,0.74156497
7.308333,0.74156497
7.311111,0.74084709
7.313889,0.74228284
7.316667,0.74300072
7.319444,0.74084709
7.322222,0.74012922
7.325000,0.74012922
7.327778,0.73797559
7.330556,0.73653984
7.333333,0.73438622
7.336111,0.73295047
7.338889,0.73366834
7.341667,0.73438622
7.344444,0.73582197
7.347222,0.73653984
7.350000,0.74012922
7.352778,0.74012922
7.355556,0.73725772
7.358333,0.73510409
7.361111,0.73653984
7.363889,0.73510409
7.366667,0.73295047
7.369444,0.73223259
7.372222,0.73151472
7.375000,0.73223259
7.377778,0.73438622
7.380556,0.73510409
7.383333,0.73438622
7.386111,0.73438622
7.388889,0.73366834
7.391667,0.73007897
7.394444,0.73223259
7.397222,0.73223259
7.400000,0.73151472
7.402778,0.73007897
7.405556,0.73007897
7.408333,0.72936109
7.411111,0.73079684
7.413889,0.73007897
7.416667,0.73295047
7.419444,0.73007897
7.422222,0.72936109
7.425000,0.72720747
7.427778,0.72290022
7.430556,0.72433597
7.433333,0.72577172
7.436111,0.72577172
7.438889,0.72720747
7.441667,0.72720747
7.444444,0.72577172
7.447222,0.72577172
7.450000,0.72577172
7.452778,0.72361809
7.455556,0.72074659
7.458333,0.72146447
7.461111,0.72074659
7.463889,0.72074659
7.466667,0.72218234
7.469444,0.72146447
7.472222,0.72290022
7.475000,0.72218234
7.477778,0.72074659
7.480556,0.72218234
7.483333,0.72146447
7.486111,0.72074659
7.488889,0.72290022
7.491667,0.72146447
7.494444,0.72218234
7.497222,0.72146447
7.500000,0.72146447
7.502778,0.71787509
7.505556,0.72074659
7.508333,0.72002872
7.511111,0.72002872
7.513889,0.72002872
7.516667,0.71931084
7.519444,0.72002872
7.522222,0.71787509
7.525000,0.71931084
7.527778,0.71931084
7.530556,0.71931084
7.533333,0.72002872
7.536111,0.71859296
7.538889,0.71715721
7.541667,0.71715721
7.544444,0.72074659
7.547222,0.72146447
7.550000,0.72505384
7.552778,0.72864322
7.555556,0.73079684
7.558333,0.73438622
7.561111,0.73295047
7.563889,0.73151472
7.566667,0.73079684
7.569444,0.73007897
7.572222,0.73223259
7.575000,0.73582197
7.577778,0.73869347
7.580556,0.74371859
7.583333,0.74587222
7.586111,0.74802584
7.588889,0.74730797
7.591667,0.74371859
7.594444,0.74012922
7.597222,0.73653984
7.600000,0.73366834
7.602778,0.73151472
7.605556,0.72936109
7.608333,0.72864322
7.611111,0.73007897
7.613889,0.72864322
7.616667,0.72792534
7.619444,0.72648959
7.622222,0.72290022
7.625000,0.72074659
7.627778,0.71572146
7.630556,0.71428571
7.633333,0.71284996
7.636111,0.71069634
7.638889,0.70926059
7.641667,0.70926059
7.644444,0.70926059
7.647222,0.71069634
7.650000,0.70997846
7.652778,0.71141421
7.655556,0.70997846
7.658333,0.71141421
7.661111,0.70926059
7.663889,0.70854271
7.666667,0.70638909
7.669444,0.70567121
7.672222,0.70495334
7.675000,0.70423546
7.677778,0.70567121
7.680556,0.70854271
7.683333,0.70926059
7.686111,0.71141421
7.688889,0.71213209
7.691667,0.71213209
7.694444,0.71069634
7.697222,0.70782484
7.700000,0.70854271
7.702778,0.70567121
7.705556,0.70782484
7.708333,0.70710696
7.711111,0.70638909
7.713889,0.70351759
7.716667,0.69777459
7.719444,0.68700646
7.722222,0.67695621
7.725000,0.67049533
7.727778,0.67767408
7.730556,0.69777459
7.733333,0.73223259
7.736111,0.78104810
7.738889,0.83776023
7.741667,0.89734386
7.744444,0.94400574
7.747222,0.97056712
7.750000,0.96482412
7.752778,0.92031587
7.755556,0.84637473
7.758333,0.76597272
7.761111,0.70136396
7.763889,0.66475233
7.766667,0.65254846
7.769444,0.65398421
7.772222,0.65972721
7.775000,0.66188083
7.777778,0.65829146
7.780556,0.64824121
7.783333,0.63675520
7.786111,0.62167983
7.788889,0.61091170
7.791667,0.60301508
7.794444,0.60086145
7.797222,0.60157933
7.800000,0.60588658
7.802778,0.61306533
7.805556,0.62455133
7.808333,0.63747308
7.811111,0.65254846
7.813889,0.66690596
7.816667,0.67767408
7.819444,0.68844221
7.822222,0.69346734
7.825000,0.70208184
7.827778,0.70567121
7.830556,0.70638909
7.833333,0.70782484
7.836111,0.70782484
7.838889,0.70638909
7.841667,0.70854271
7.844444,0.70926059
7.847222,0.71141421
7.850000,0.71428571
7.852778,0.71572146
7.855556,0.71643934
7.858333,0.71787509
7.861111,0.71643934
7.863889,0.71643934
7.866667,0.71715721
7.869444,0.71643934
7.872222,0.71715721
7.875000,0.71931084
7.877778,0.72146447
7.880556,0.72218234
7.883333,0.72218234
7.886111,0.72361809
7.888889,0.72290022
7.891667,0.72361809
7.894444,0.72361809
7.897222,0.72146447
7.900000,0.72290022
7.902778,0.72146447
7.905556,0.72290022
7.908333,0.72290022
7.911111,0.72433597
7.913889,0.72792534
7.916667,0.72936109
7.919444,0.72864322
7.922222,0.73079684
7.925000,0.73079684
7.927778,0.73007897
7.930556,0.72720747
7.933333,0.72361809
7.936111,0.72648959
7.938889,0.72864322
7.941667,0.73079684
7.944444,0.73223259
7.947222,0.73438622
7.950000,0.73797559
7.952778,0.73869347
7.955556,0.74156497
7.958333,0.74084709
7.961111,0.74228284
7.963889,0.74300072
7.966667,0.74228284
7.969444,0.74084709
7.972222,0.74371859
7.975000,0.74228284
7.977778,0.74515434
7.980556,0.74946159
7.983333,0.75305097
7.986111,0.75448672
7.988889,0.75592247
7.991667,0.75951184
7.994444,0.75807609
7.997222,0.75807609
8.000000,0.75807609
8.002778,0.75664034
8.005556,0.76022972
8.008333,0.76166547
8.011111,0.76597272
8.013889,0.76669060
8.016667,0.77099785
8.019444,0.77386935
8.022222,0.77674085
8.025000,0.77817660
8.027778,0.78033022
8.030556,0.78176597
8.033333,0.78104810
8.036111,0.77817660
8.038889,0.78033022
8.041667,0.78104810
8.044444,0.78248385
8.047222,0.78535535
8.050000,0.78679110
8.052778,0.78750897
8.055556,0.78750897
8.058333,0.78894472
8.061111,0.78822685
8.063889,0.79038047
8.066667,0.78894472
8.069444,0.78966260
8.072222,0.79253410
8.075000,0.79109835
8.077778,0.79253410
8.080556,0.79253410
8.083333,0.79038047
8.086111,0.79038047
8.088889,0.78822685
8.091667,0.78679110
8.094444,0.78535535
8.097222,0.78320172
8.100000,0.78104810
8.102778,0.77817660
8.105556,0.77602297
8.108333,0.77386935
8.111111,0.77027997
8.113889,0.76884422
8.116667,0.76525485
8.119444,0.76381910
8.122222,0.76022972
8.125000,0.75735822
8.127778,0.75161522
8.130556,0.74874372
8.133333,0.74515434
8.136111,0.74300072
8.138889,0.74228284
8.141667,0.74084709
8.144444,0.73941134
8.147222,0.73653984
8.150000,0.73510409
8.152778,0.73223259
8.155556,0.72936109
8.158333,0.72864322
8.161111,0.72792534
8.163889,0.72648959
8.166667,0.72433597
8.169444,0.72002872
8.172222,0.71787509
8.175000,0.71715721
8.177778,0.72002872
8.180556,0.72074659
8.183333,0.72361809
8.186111,0.72577172
8.188889,0.72433597
8.191667,0.72218234
8.194444,0.71931084
8.197222,0.71787509
8.200000,0.71643934
8.202778,0.71643934
8.205556,0.71643934
8.208333,0.71787509
8.211111,0.71859296
8.213889,0.71931084
8.216667,0.72002872
8.219444,0.72290022
8.222222,0.72361809
8.225000,0.72433597
8.227778,0.72361809
8.230556,0.72218234
8.233333,0.72218234
8.236111,0.72002872
8.238889,0.72146447
8.241667,0.72074659
8.244444,0.72146447
8.247222,0.72361809
8.250000,0.72361809
8.252778,0.72361809
8.255556,0.72361809
8.258333,0.72361809
8.261111,0.72290022
8.263889,0.72290022
8.266667,0.72146447
8.269444,0.72146447
8.272222,0.72002872
8.275000,0.72002872
8.277778,0.72074659
8.280556,0.72146447
8.283333,0.72218234
8.286111,0.72361809
8.288889,0.72146447
8.291667,0.72146447
8.294444,0.72074659
8.297222,0.71931084
8.300000,0.71931084
8.302778,0.71859296
8.305556,0.71643934
8.308333,0.71643934
8.311111,0.71859296
8.313889,0.71787509
8.316667,0.71787509
8.319444,0.72002872
8.322222,0.71859296
8.325000,0.71643934
8.327778,0.71643934
8.330556,0.71500359
8.333333,0.71643934
8.336111,0.71572146
8.338889,0.71500359
8.341667,0.71428571
8.344444,0.71572146
8.347222,0.71500359
8.350000,0.71643934
8.352778,0.71643934
8.355556,0.71500359
8.358333,0.71428571
8.361111,0.71356784
8.363889,0.71356784
8.366667,0.71428571
8.369444,0.71141421
8.372222,0.71284996
8.375000,0.71428571
8.377778,0.71428571
8.380556,0.71643934
8.383333,0.71859296
8.386111,0.72002872
8.388889,0.72146447
8.391667,0.72290022
8.394444,0.72361809
8.397222,0.72361809
8.400000,0.72290022
8.402778,0.72361809
8.405556,0.72505384
8.408333,0.72720747
8.411111,0.73007897
8.413889,0.73295047
8.416667,0.73582197
8.419444,0.73869347
8.422222,0.74012922
8.425000,0.74012922
8.427778,0.74012922
8.430556,0.73653984
8.433333,0.73438622
8.436111,0.73223259
8.438889,0.73151472
8.441667,0.73007897
8.444444,0.72936109
8.447222,0.72792534
8.450000,0.72648959
8.452778,0.72290022
8.455556,0.72002872
8.458333,0.71787509
8.461111,0.71500359
8.463889,0.71069634
8.466667,0.70926059
8.469444,0.70710696
8.472222,0.70638909
8.475000,0.70638909
8.477778,0.70638909
8.480556,0.70567121
8.483333,0.70782484
8.486111,0.70710696
8.488889,0.70638909
8.491667,0.70495334
8.494444,0.70423546
8.497222,0.70495334
8.500000,0.70279971
8.502778,0.70208184
8.505556,0.70279971
8.508333,0.70136396
8.511111,0.70351759
8.513889,0.70279971
8.516667,0.70495334
8.519444,0.70495334
8.522222,0.70638909
8.525000,0.70495334
8.527778,0.70351759
8.530556,0.70423546
8.533333,0.70351759
8.536111,0.70279971
8.538889,0.70279971
8.541667,0.70064609
8.544444,0.69705671
8.547222,0.69274946
8.550000,0.68341709
8.552778,0.67336683
8.555556,0.66905958
8.558333,0.67623833
8.561111,0.70208184
8.563889,0.74084709
8.566667,0.79612347
8.569444,0.85498923
8.572222,0.91170136
8.575000,0.94974874
8.577778,0.95620962
8.580556,0.92390524
8.583333,0.85498923
8.586111,0.77961235
8.588889,0.71643934
8.591667,0.67910983
8.594444,0.66331658
8.597222,0.66116296
8.600000,0.66188083
8.602778,0.65685571
8.605556,0.64752333
8.608333,0.63460158
8.611111,0.61880833
8.613889,0.60660445
8.616667,0.59942570
8.619444,0.59942570
8.622222,0.60157933
8.625000,0.61019383
8.627778,0.61665470
8.630556,0.62814070
8.633333,0.64106246
8.636111,0.65541996
8.638889,0.66834171
8.641667,0.67623833
8.644444,0.68700646
8.647222,0.69274946
8.650000,0.69777459
8.652778,0.70136396
8.655556,0.70208184
8.658333,0.70351759
8.661111,0.70279971
8.663889,0.70567121
8.666667,0.70495334
8.669444,0.70567121
8.672222,0.70782484
8.675000,0.70710696
8.677778,0.70926059
8.680556,0.70997846
8.683333,0.71141421
8.686111,0.71284996
8.688889,0.71284996
8.691667,0.71284996
8.694444,0.71141421
8.697222,0.71356784
8.700000,0.71284996
8.702778,0.71069634
8.705556,0.71213209
8.708333,0.71213209
8.711111,0.71500359
8.713889,0.71787509
8.716667,0.71715721
8.719444,0.71715721
8.722222,0.71643934
8.725000,0.71931084
8.727778,0.71859296
8.730556,0.71931084
8.733333,0.71931084
8.736111,0.71859296
8.738889,0.71643934
8.741667,0.71787509
8.744444,0.72002872
8.747222,0.72505384
8.750000,0.72577172
8.752778,0.72720747
8.755556,0.72577172
8.758333,0.72648959
8.761111,0.72792534
8.763889,0.72792534
8.766667,0.72864322
8.769444,0.72936109
8.772222,0.72864322
8.775000,0.73079684
8.777778,0.73223259
8.780556,0.73366834
8.783333,0.73582197
8.786111,0.73725772
8.788889,0.74012922
8.791667,0.73941134
8.794444,0.74012922
8.797222,0.73941134
8.800000,0.74084709
8.802778,0.74228284
8.805556,0.74371859
8.808333,0.74300072
8.811111,0.74730797
8.813889,0.74874372
8.816667,0.75089734
8.819444,0.75305097
8.822222,0.75161522
8.825000,0.75448672
8.827778,0.75520459
8.830556,0.75520459
8.833333,0.75664034
8.836111,0.75807609
8.838889,0.75879397
8.841667,0.76166547
8.844444,0.76381910
8.847222,0.76597272
8.850000,0.76884422
8.852778,0.77099785
8.855556,0.77243360
8.858333,0.77315147
8.861111,0.77458722
8.863889,0.77458722
8.866667,0.77315147
8.869444,0.77171572
8.872222,0.77530510
8.875000,0.77674085
8.877778,0.77817660
8.880556,0.77961235
8.883333,0.78104810
8.886111,0.78463747
8.888889,0.78607322
8.891667,0.78607322
8.894444,0.78535535
8.897222,0.78822685
8.900000,0.78750897
8.902778,0.78607322
8.905556,0.78535535
8.908333,0.78750897
8.911111,0.78750897
8.913889,0.78822685
8.916667,0.78894472
8.919444,0.78679110
8.922222,0.78391960
8.925000,0.78176597
8.927778,0.78176597
8.930556,0.77745872
8.933333,0.77458722
8.936111,0.77027997
8.938889,0.76740847
8.941667,0.76669060
8.944444,0.76238335
8.947222,0.76022972
8.950000,0.75735822
8.952778,0.75520459
8.955556,0.75089734
8.958333,0.74802584
8.961111,0.74515434
8.963889,0.74300072
8.966667,0.73869347
8.969444,0.73510409
8.972222,0.73223259
8.975000,0.73151472
8.977778,0.72864322
8.980556,0.72792534
8.983333,0.72648959
8.986111,0.72577172
8.988889,0.72577172
8.991667,0.72577172
8.994444,0.72361809
8.997222,0.72218234
9.000000,0.72074659
9.002778,0.71931084
9.005556,0.71859296
9.008333,0.72002872
9.011111,0.72002872
9.013889,0.72002872
9.016667,0.72146447
9.019444,0.72218234
9.022222,0.72361809
9.025000,0.72218234
9.027778,0.72146447
9.030556,0.72002872
9.033333,0.71931084
9.036111,0.71787509
9.038889,0.71859296
9.041667,0.72002872
9.044444,0.71931084
9.047222,0.72218234
9.050000,0.72218234
9.052778,0.72361809
9.055556,0.72361809
9.058333,0.72577172
9.061111,0.72290022
9.063889,0.72433597
9.066667,0.72361809
9.069444,0.72361809
9.072222,0.72218234
9.075000,0.72290022
9.077778,0.72505384
9.080556,0.72361809
9.083333,0.72648959
9.086111,0.72648959
9.088889,0.72720747
9.091667,0.72505384
9.094444,0.72505384
9.097222,0.72433597
9.100000,0.72433597
9.102778,0.72218234
9.105556,0.72218234
9.108333,0.72074659
9.111111,0.72361809
9.113889,0.72146447
9.116667,0.72433597
9.119444,0.72290022
9.122222,0.72002872
9.125000,0.72074659
9.127778,0.72290022
9.130556,0.72002872
9.133333,0.71859296
9.136111,0.71859296
9.138889,0.71787509
9.141667,0.71787509
9.144444,0.71787509
9.147222,0.71859296
9.150000,0.71931084
9.152778,0.71787509
9.155556,0.71859296
9.158333,0.71787509
9.161111,0.71715721
9.163889,0.71572146
9.166667,0.71500359
9.169444,0.71284996
9.172222,0.71213209
9.175000,0.71356784
9.177778,0.71284996
9.180556,0.71428571
9.183333,0.71356784
9.186111,0.71500359
9.188889,0.71356784
9.191667,0.71428571
9.194444,0.71428571
9.197222,0.71213209
9.200000,0.71141421
9.202778,0.71141421
9.205556,0.71284996
9.208333,0.71141421
9.211111,0.71213209
9.213889,0.71428571
9.216667,0.71356784
9.219444,0.71500359
9.222222,0.71428571
9.225000,0.71213209
9.227778,0.71141421
9.230556,0.71213209
9.233333,0.71141421
9.236111,0.70997846
9.238889,0.71069634
9.241667,0.71213209
9.244444,0.71069634
9.247222,0.71284996
9.250000,0.71284996
9.252778,0.71500359
9.255556,0.71356784
9.258333,0.71428571
9.261111,0.71428571
9.263889,0.71428571
9.266667,0.71141421
9.269444,0.71213209
9.272222,0.71141421
9.275000,0.71284996
9.277778,0.71141421
9.280556,0.71284996
9.283333,0.71428571
9.286111,0.71572146
9.288889,0.71572146
9.291667,0.71643934
9.294444,0.71859296
9.297222,0.71859296
9.300000,0.71787509
9.302778,0.71859296
9.305556,0.72002872
9.308333,0.72074659
9.311111,0.72218234
9.313889,0.72361809
9.316667,0.72577172
9.319444,0.72720747
9.322222,0.72792534
9.325000,0.72936109
9.327778,0.73151472
9.330556,0.73295047
9.333333,0.73582197
9.336111,0.73797559
9.338889,0.73797559
9.341667,0.74012922
9.344444,0.73869347
9.347222,0.73725772
9.350000,0.73653984
9.352778,0.73653984
9.355556,0.73366834
9.358333,0.73223259
9.361111,0.73079684
9.363889,0.72792534
9.366667,0.72792534
9.369444,0.72577172
9.372222,0.72146447
9.375000,0.71859296
9.377778,0.71787509
9.380556,0.71572146
9.383333,0.71356784
9.386111,0.71356784
9.388889,0.71356784
9.391667,0.71141421
9.394444,0.70926059
9.397222,0.70567121
9.400000,0.70782484
9.402778,0.70567121
9.405556,0.70495334
9.408333,0.70423546
9.411111,0.70495334
9.413889,0.70710696
9.416667,0.70638909
9.419444,0.70782484
9.422222,0.70782484
9.425000,0.70854271
9.427778,0.70495334
9.430556,0.70638909
9.433333,0.70567121
9.436111,0.70567121
9.438889,0.70495334
9.441667,0.70495334
9.444444,0.70638909
9.447222,0.70638909
9.450000,0.70710696
9.452778,0.70926059
9.455556,0.70710696
9.458333,0.70710696
9.461111,0.70423546
9.463889,0.70064609
9.466667,0.69274946
9.469444,0.68413496
9.472222,0.67336683
9.475000,0.66905958
9.477778,0.67408471
9.480556,0.69274946
9.483333,0.72864322
9.486111,0.77674085
9.488889,0.83273510
9.491667,0.88872936
9.494444,0.93467337
9.497222,0.96338837
9.500000,0.96554200
9.502778,0.93323762
9.505556,0.87293611
9.508333,0.79971285
9.511111,0.73653984
9.513889,0.69490309
9.516667,0.67623833
9.519444,0.67193108
9.522222,0.67336683
9.525000,0.67193108
9.527778,0.66403446
9.530556,0.64967696
9.533333,0.63029433
9.536111,0.61234745
9.538889,0.59870782
9.541667,0.59152907
9.544444,0.59152907
9.547222,0.59655420
9.550000,0.60373295
9.552778,0.61737258
9.555556,0.62957645
9.558333,0.64321608
9.561111,0.65829146
9.563889,0.66762383
9.566667,0.67910983
9.569444,0.68485284
9.572222,0.69131371
9.575000,0.69633884
9.577778,0.69992821
9.580556,0.70279971
9.583333,0.70423546
9.586111,0.70495334
9.588889,0.70495334
9.591667,0.70710696
9.594444,0.70854271
9.597222,0.70710696
9.600000,0.70854271
9.602778,0.70710696
9.605556,0.70854271
9.608333,0.70997846
9.611111,0.71069634
9.613889,0.71213209
9.616667,0.71213209
9.619444,0.71500359
9.622222,0.71428571
9.625000,0.71500359
9.627778,0.71428571
9.630556,0.71284996
9.633333,0.71428571
9.636111,0.71213209
9.638889,0.71069634
9.641667,0.71284996
9.644444,0.71500359
9.647222,0.71572146
9.650000,0.71572146
9.652778,0.71787509
9.655556,0.71931084
9.658333,0.71859296
9.661111,0.71715721
9.663889,0.71931084
9.666667,0.71787509
9.669444,0.71787509
9.672222,0.71931084
9.675000,0.71931084
9.677778,0.72074659
9.680556,0.72218234
9.683333,0.72290022
9.686111,0.72577172
9.688889,0.72505384
9.691667,0.72505384
9.694444,0.72433597
9.697222,0.72361809
9.700000,0.72433597
9.702778,0.72648959
9.705556,0.72792534
9.708333,0.72936109
9.711111,0.73007897
9.713889,0.73223259
9.716667,0.73295047
9.719444,0.73582197
9.722222,0.73725772
9.725000,0.73869347
9.727778,0.73725772
9.730556,0.73869347
9.733333,0.73941134
9.736111,0.73941134
9.738889,0.74012922
9.741667,0.74228284
9.744444,0.74300072
9.747222,0.74443647
9.750000,0.74730797
9.752778,0.75089734
9.755556,0.75161522
9.758333,0.75305097
9.761111,0.75376884
9.763889,0.75376884
9.766667,0.75448672
9.769444,0.75520459
9.772222,0.75735822
9.775000,0.75951184
9.777778,0.76166547
9.780556,0.76381910
9.783333,0.76740847
9.786111,0.76884422
9.788889,0.77027997
9.791667,0.77315147
9.794444,0.77315147
9.797222,0.77315147
9.800000,0.77530510
9.802778,0.77602297
9.805556,0.77817660
9.808333,0.78104810
9.811111,0.78320172
9.813889,0.78535535
9.816667,0.78535535
9.819444,0.78822685
9.822222,0.78966260
9.825000,0.79038047
9.827778,0.79038047
9.830556,0.79109835
9.833333,0.78966260
9.836111,0.79109835
9.838889,0.79181622
9.841667,0.79253410
9.844444,0.79325197
9.847222,0.79468772
9.850000,0.79684135
9.852778,0.79755922
9.855556,0.79684135
9.858333,0.79612347
9.861111,0.79612347
9.863889,0.79396985
9.866667,0.79181622
9.869444,0.78966260
9.872222,0.78822685
9.875000,0.78679110
9.877778,0.78391960
9.880556,0.78391960
9.883333,0.78176597
9.886111,0.77889447
9.888889,0.77674085
9.891667,0.77315147
9.894444,0.77099785
9.897222,0.76740847
9.900000,0.76166547
9.902778,0.75951184
9.905556,0.75520459
9.908333,0.75089734
9.911111,0.75017947
9.913889,0.74730797
9.916667,0.74802584
9.919444,0.74802584
9.922222,0.74587222
9.925000,0.74371859
9.927778,0.74012922
9.930556,0.73869347
9.933333,0.73582197
9.936111,0.73223259
9.938889,0.73151472
9.941667,0.73007897
9.944444,0.72936109
9.947222,0.73007897
9.950000,0.73079684
9.952778,0.73007897
9.955556,0.73007897
9.958333,0.72936109
9.961111,0.72720747
9.963889,0.72648959
9.966667,0.72433597
9.969444,0.72146447
9.972222,0.72146447
9.975000,0.72074659
9.977778,0.72146447
9.980556,0.72218234
9.983333,0.72505384
9.986111,0.72577172
9.988889,0.72505384
9.991667,0.72505384
9.994444,0.72433597
9.997222,0.72361809
10.000000,0.72146447
10.002778,0.72074659
10.005556,0.72146447
10.008333,0.72218234
10.011111,0.72146447
10.013889,0.72146447
10.016667,0.72433597
10.019444,0.72433597
10.022222,0.72361809
10.025000,0.72648959
10.027778,0.72577172
10.030556,0.72505384
10.033333,0.72433597
10.036111,0.72146447
10.038889,0.72290022
10.041667,0.72361809
10.044444,0.72290022
10.047222,0.72290022
10.050000,0.72290022
10.052778,0.72361809
10.055556,0.72290022
10.058333,0.72218234
10.061111,0.72074659
10.063889,0.72146447
10.066667,0.71859296
10.069444,0.71715721
10.072222,0.71787509
10.075000,0.71715721
10.077778,0.71787509
10.080556,0.71787509
10.083333,0.71715721
10.086111,0.71931084
10.088889,0.71931084
10.091667,0.71931084
10.094444,0.71787509
10.097222,0.71643934
10.100000,0.71500359
10.102778,0.71284996
10.105556,0.71141421
10.108333,0.71356784
10.111111,0.71572146
10.113889,0.71500359
10.116667,0.71715721
10.119444,0.71643934
10.122222,0.71500359
10.125000,0.71428571
10.127778,0.71213209
10.130556,0.70997846
10.133333,0.70997846
10.136111,0.71213209
10.138889,0.71356784
10.141667,0.71428571
10.144444,0.71500359
10.147222,0.71500359
10.150000,0.71572146
10.152778,0.71572146
10.155556,0.71715721
10.158333,0.71428571
10.161111,0.71141421
10.163889,0.70926059
10.166667,0.70710696
10.169444,0.70710696
10.172222,0.70926059
10.175000,0.70854271
10.177778,0.70997846
10.180556,0.70854271
10.183333,0.71069634
10.186111,0.70997846
10.188889,0.70926059
10.191667,0.71141421
10.194444,0.71141421
10.197222,0.71141421
10.200000,0.71141421
10.202778,0.70997846
10.205556,0.70997846
10.208333,0.70997846
10.211111,0.71141421
10.213889,0.71141421
10.216667,0.70997846
10.219444,0.71141421
10.222222,0.71213209
10.225000,0.71572146
10.227778,0.71428571
10.230556,0.71643934
10.233333,0.71643934
10.236111,0.71500359
10.238889,0.71643934
10.241667,0.71643934
10.244444,0.71643934
10.247222,0.71859296
10.250000,0.72433597
10.252778,0.72648959
10.255556,0.72936109
10.258333,0.73223259
10.261111,0.73366834
10.263889,0.73438622
10.266667,0.73438622
10.269444,0.73223259
10.272222,0.73295047
10.275000,0.73223259
10.277778,0.73295047
10.280556,0.73438622
10.283333,0.73366834
10.286111,0.73438622
10.288889,0.73151472
10.291667,0.72864322
10.294444,0.72433597
10.297222,0.72218234
10.300000,0.71787509
10.302778,0.71715721
10.305556,0.71500359
10.308333,0.71069634
10.311111,0.70997846
10.313889,0.70854271
10.316667,0.70926059
10.319444,0.70997846
10.322222,0.70997846
10.325000,0.70926059
10.327778,0.70782484
10.330556,0.70495334
10.333333,0.70423546
10.336111,0.70423546
10.338889,0.70279971
10.341667,0.70351759
10.344444,0.70423546
10.347222,0.70567121
10.350000,0.70638909
10.352778,0.70495334
10.355556,0.70495334
10.358333,0.70351759
10.361111,0.70064609
10.363889,0.70208184
10.366667,0.70136396
10.369444,0.70351759
10.372222,0.70279971
10.375000,0.70567121
10.377778,0.70710696
10.380556,0.70854271
10.383333,0.70782484
10.386111,0.70782484
10.388889,0.70638909
10.391667,0.70351759
10.394444,0.69849246
10.397222,0.68987796
10.400000,0.68198134
10.402778,0.67264896
10.405556,0.66977746
10.408333,0.67839196
10.411111,0.70423546
10.413889,0.74300072
10.416667,0.79468772
10.419444,0.85283561
10.422222,0.90452261
10.425000,0.94472362
10.427778,0.96123475
10.430556,0.94544149
10.433333,0.89375449
10.436111,0.81837760
10.438889,0.74587222
10.441667,0.68987796
10.444444,0.66188083
10.447222,0.65613783
10.450000,0.66116296
10.452778,0.66475233
10.455556,0.66331658
10.458333,0.65470208
10.461111,0.64106246
10.463889,0.62455133
10.466667,0.61019383
10.469444,0.60014358
10.472222,0.59583632
10.475000,0.59511845
10.477778,0.60157933
10.480556,0.60947595
10.483333,0.61880833
10.486111,0.63029433
10.488889,0.64178033
10.491667,0.65254846
10.494444,0.66403446
10.497222,0.67408471
10.500000,0.68341709
10.502778,0.68844221
10.505556,0.69490309
10.508333,0.69992821
10.511111,0.70208184
10.513889,0.70495334
10.516667,0.70567121
10.519444,0.70710696
10.522222,0.70782484
10.525000,0.70926059
10.527778,0.70926059
10.530556,0.70926059
10.533333,0.70997846
10.536111,0.70997846
10.538889,0.70926059
10.541667,0.71069634
10.544444,0.71141421
10.547222,0.71500359
10.550000,0.71715721
10.552778,0.71643934
10.555556,0.71715721
10.558333,0.71859296
10.561111,0.71787509
10.563889,0.71643934
10.566667,0.71715721
10.569444,0.71500359
10.572222,0.71500359
10.575000,0.71572146
10.577778,0.71572146
10.580556,0.71643934
10.583333,0.71931084
10.586111,0.72002872
10.588889,0.72146447
10.591667,0.72433597
10.594444,0.72505384
10.597222,0.72361809
10.600000,0.72433597
10.602778,0.72290022
10.605556,0.72505384
10.608333,0.72361809
10.611111,0.72505384
10.613889,0.72433597
10.616667,0.72433597
10.619444,0.72648959
10.622222,0.72792534
10.625000,0.73079684
10.627778,0.73079684
10.630556,0.73151472
10.633333,0.73295047
10.636111,0.73366834
10.638889,0.73438622
10.641667,0.73438622
10.644444,0.73582197
10.647222,0.73725772
10.650000,0.73941134
10.652778,0.74228284
10.655556,0.74300072
10.658333,0.74443647
10.661111,0.74443647
10.663889,0.74371859
10.666667,0.74228284
10.669444,0.74300072
10.672222,0.74443647
10.675000,0.74659009
10.677778,0.74802584
10.680556,0.74946159
10.683333,0.75161522
10.686111,0.75592247
10.688889,0.75664034
10.691667,0.76022972
10.694444,0.76022972
10.697222,0.76094760
10.700000,0.76094760
10.702778,0.76166547
10.705556,0.76238335
10.708333,0.76310122
10.711111,0.76525485
10.713889,0.76597272
10.716667,0.76956210
10.719444,0.77171572
10.722222,0.77315147
10.725000,0.77674085
10.727778,0.77745872
10.730556,0.77745872
10.733333,0.78033022
10.736111,0.78176597
10.738889,0.78320172
10.741667,0.78248385
10.744444,0.78104810
10.747222,0.78104810
10.750000,0.78320172
10.752778,0.78535535
10.755556,0.78679110
10.758333,0.79038047
10.761111,0.79181622
10.763889,0.79540560
10.766667,0.79468772
10.769444,0.79396985
10.772222,0.79396985
10.775000,0.79181622
10.777778,0.79181622
10.780556,0.79038047
10.783333,0.79038047
10.786111,0.79253410
10.788889,0.79181622
10.791667,0.78894472
10.794444,0.78607322
10.797222,0.78248385
10.800000,0.78104810
10.802778,0.77745872
10.805556,0.77386935
10.808333,0.77171572
10.811111,0.76956210
10.813889,0.76597272
10.816667,0.76525485
10.819444,0.76310122
10.822222,0.75879397
10.825000,0.75520459
10.827778,0.75305097
10.830556,0.74730797
10.833333,0.74443647
10.836111,0.74228284
10.838889,0.73797559
10.841667,0.73510409
10.844444,0.73366834
10.847222,0.73295047
10.850000,0.73151472
10.852778,0.73151472
10.855556,0.73007897
10.858333,0.72792534
10.861111,0.72648959
10.863889,0.72577172
10.866667,0.72361809
10.869444,0.72074659
10.872222,0.72218234
10.875000,0.72002872
10.877778,0.72002872
10.880556,0.72074659
10.883333,0.72218234
10.886111,0.72361809
10.888889,0.72218234
10.891667,0.72074659
10.894444,0.72146447
10.897222,0.72218234
10.900000,0.72218234
10.902778,0.72361809
10.905556,0.72146447
10.908333,0.72146447
10.911111,0.72218234
10.913889,0.72290022
10.916667,0.72290022
10.919444,0.72577172
10.922222,0.72648959
10.925000,0.72792534
10.927778,0.72720747
10.930556,0.72864322
10.933333,0.72720747
10.936111,0.72648959
10.938889,0.72505384
10.941667,0.72361809
10.944444,0.72505384
10.947222,0.72648959
10.950000,0.72648959
10.952778,0.72577172
10.955556,0.72648959
10.958333,0.72577172
10.961111,0.72505384
10.963889,0.72361809
10.966667,0.72433597
10.969444,0.72433597
10.972222,0.72002872
10.975000,0.72002872
10.977778,0.72218234
10.980556,0.72290022
10.983333,0.72218234
10.986111,0.72146447
10.988889,0.72218234
10.991667,0.72074659
10.994444,0.71931084
10.997222,0.72074659
11.000000,0.71859296
11.002778,0.71931084
11.005556,0.71859296
11.008333,0.71787509
11.011111,0.71787509
11.013889,0.71859296
11.016667,0.72002872
11.019444,0.71931084
11.022222,0.72002872
11.025000,0.72002872
11.027778,0.71931084
11.030556,0.71787509
11.033333,0.71643934
11.036111,0.71500359
11.038889,0.71572146
11.041667,0.71428571
11.044444,0.71500359
11.047222,0.71500359
11.050000,0.71643934
11.052778,0.71715721
11.055556,0.71787509
11.058333,0.71859296
11.061111,0.71931084
11.063889,0.71787509
11.066667,0.71931084
11.069444,0.71859296
11.072222,0.71787509
11.075000,0.72074659
11.077778,0.72146447
11.080556,0.72433597
11.083333,0.72577172
11.086111,0.72792534
11.088889,0.72864322
11.091667,0.72936109
11.094444,0.72936109
11.097222,0.73007897
11.100000,0.73151472
11.102778,0.73366834
11.105556,0.73653984
11.108333,0.73869347
11.111111,0.74012922
11.113889,0.74156497
11.116667,0.74228284
11.119444,0.74156497
11.122222,0.74084709
11.125000,0.73869347
11.127778,0.73725772
11.130556,0.73438622
11.133333,0.73223259
11.136111,0.72792534
11.138889,0.72577172
11.141667,0.72146447
11.144444,0.71931084
11.147222,0.71787509
11.150000,0.71715721
11.152778,0.71572146
11.155556,0.71428571
11.158333,0.71213209
11.161111,0.70926059
11.163889,0.70854271
11.166667,0.70567121
11.169444,0.70567121
11.172222,0.70567121
11.175000,0.70567121
11.177778,0.70423546
11.180556,0.70495334
11.183333,0.70710696
11.186111,0.70782484
11.188889,0.70638909
11.191667,0.70710696
11.194444,0.70638909
11.197222,0.70495334
11.200000,0.70351759
11.202778,0.70208184
11.205556,0.70064609
11.208333,0.70208184
11.211111,0.70279971
11.213889,0.70495334
11.216667,0.70423546
11.219444,0.70495334
11.222222,0.70423546
11.225000,0.70495334
11.227778,0.70638909
11.230556,0.70495334
11.233333,0.70351759
11.236111,0.70064609
11.238889,0.69490309
11.241667,0.68844221
11.244444,0.68054559
11.247222,0.67049533
11.250000,0.67121321
11.252778,0.68126346
11.255556,0.70997846
11.258333,0.75305097
11.261111,0.80904523
11.263889,0.86791098
11.266667,0.92031587
11.269444,0.95333812
11.272222,0.95405599
11.275000,0.91241924
11.277778,0.84134961
11.280556,0.76381910
11.283333,0.70208184
11.286111,0.66618808
11.288889,0.65541996
11.291667,0.65613783
11.294444,0.66044508
11.297222,0.65900933
11.300000,0.65111271
11.302778,0.63747308
11.305556,0.62024408
11.308333,0.60660445
11.311111,0.59727207
11.313889,0.59655420
11.316667,0.59727207
11.319444,0.60373295
11.322222,0.61234745
11.325000,0.62239770
11.327778,0.63603733
11.330556,0.64895908
11.333333,0.66044508
11.336111,0.66977746
11.338889,0.67982771
11.341667,0.68772434
11.344444,0.69346734
11.347222,0.69705671
11.350000,0.69992821
11.352778,0.70351759
11.355556,0.70495334
11.358333,0.70423546
11.361111,0.70423546
11.363889,0.70495334
11.366667,0.70710696
11.369444,0.70782484
11.372222,0.70782484
11.375000,0.70710696
11.377778,0.70782484
11.380556,0.70997846
11.383333,0.71284996
11.386111,0.71428571
11.388889,0.71428571
11.391667,0.71356784
11.394444,0.71500359
11.397222,0.71428571
11.400000,0.71284996
11.402778,0.71141421
11.405556,0.71141421
11.408333,0.71141421
11.411111,0.71356784
11.413889,0.71356784
11.416667,0.71500359
11.419444,0.71643934
11.422222,0.71787509
11.425000,0.71787509
11.427778,0.71787509
11.430556,0.71643934
11.433333,0.71787509
11.436111,0.71787509
11.438889,0.71787509
11.441667,0.71787509
11.444444,0.72002872
11.447222,0.72074659
11.450000,0.72146447
11.452778,0.72433597
11.455556,0.72577172
11.458333,0.72648959
11.461111,0.72720747
11.463889,0.72577172
11.466667,0.72648959
11.469444,0.72648959
11.472222,0.72505384
11.475000,0.72720747
11.477778,0.72936109
11.480556,0.73079684
11.483333,0.73007897
11.486111,0.73582197
11.488889,0.73510409
11.491667,0.73438622
11.494444,0.73582197
11.497222,0.73653984
11.500000,0.73797559
11.502778,0.73869347
11.505556,0.73941134
11.508333,0.73941134
11.511111,0.74084709
11.513889,0.74300072
11.516667,0.74515434
11.519444,0.74874372
11.522222,0.74946159
11.525000,0.75017947
11.527778,0.75161522
11.530556,0.75161522
11.533333,0.75233309
11.536111,0.75376884
11.538889,0.75376884
11.541667,0.75520459
11.544444,0.75664034
11.547222,0.76022972
11.550000,0.76022972
11.552778,0.76238335
11.555556,0.76525485
11.558333,0.76884422
11.561111,0.76884422
11.563889,0.77027997
11.566667,0.76956210
11.569444,0.76884422
11.572222,0.77171572
11.575000,0.77243360
11.577778,0.77315147
11.580556,0.77530510
11.583333,0.77745872
11.586111,0.77889447
11.588889,0.77961235
11.591667,0.78104810
11.594444,0.78176597
11.597222,0.78104810
11.600000,0.78176597
11.602778,0.78248385
11.605556,0.78320172
11.608333,0.78463747
11.611111,0.78607322
11.613889,0.78679110
11.616667,0.78535535
11.619444,0.78607322
11.622222,0.78391960
11.625000,0.78320172
11.627778,0.78104810
11.630556,0.77817660
11.633333,0.77530510
11.636111,0.77171572
11.638889,0.77027997
11.641667,0.76812635
11.644444,0.76597272
11.647222,0.76310122
11.650000,0.75951184
11.652778,0.75879397
11.655556,0.75448672
11.658333,0.75161522
11.661111,0.74874372
11.663889,0.74659009
11.666667,0.74156497
11.669444,0.73582197
11.672222,0.73582197
11.675000,0.73151472
11.677778,0.73079684
11.680556,0.72936109
11.683333,0.72792534
11.686111,0.72648959
11.688889,0.72648959
11.691667,0.72433597
11.694444,0.72433597
11.697222,0.72361809
11.700000,0.72002872
11.702778,0.71859296
11.705556,0.71715721
11.708333,0.71715721
11.711111,0.71643934
11.713889,0.71715721
11.716667,0.71787509
11.719444,0.71859296
11.722222,0.71715721
11.725000,0.71859296
11.727778,0.72074659
11.730556,0.71787509
11.733333,0.71787509
11.736111,0.71715721
11.738889,0.71715721
11.741667,0.71787509
11.744444,0.71715721
11.747222,0.72074659
11.750000,0.72146447
11.752778,0.72218234
11.755556,0.72290022
11.758333,0.72290022
11.761111,0.72218234
11.763889,0.72146447
11.766667,0.72074659
11.769444,0.72218234
11.772222,0.72218234
11.775000,0.72361809
11.777778,0.72361809
11.780556,0.72361809
11.783333,0.72290022
11.786111,0.72361809
11.788889,0.72290022
11.791667,0.72146447
11.794444,0.72290022
11.797222,0.72146447
11.800000,0.72218234
11.802778,0.72074659
11.805556,0.72002872
11.808333,0.72074659
11.811111,0.72002872
11.813889,0.72002872
11.816667,0.72002872
11.819444,0.72146447
11.822222,0.72146447
11.825000,0.72146447
11.827778,0.72074659
11.830556,0.72074659
11.833333,0.71859296
11.836111,0.71787509
11.838889,0.71643934
11.841667,0.71643934
11.844444,0.71643934
11.847222,0.71859296
11.850000,0.71715721
11.852778,0.71715721
11.855556,0.71787509
11.858333,0.71715721
11.861111,0.71715721
11.863889,0.71428571
11.866667,0.71572146
11.869444,0.71428571
11.872222,0.71356784
11.875000,0.71428571
11.877778,0.71356784
11.880556,0.71284996
11.883333,0.71572146
11.886111,0.71643934
11.888889,0.71572146
11.891667,0.71572146
11.894444,0.71572146
11.897222,0.71500359
11.900000,0.71500359
11.902778,0.71141421
11.905556,0.71069634
11.908333,0.71213209
11.911111,0.71213209
11.913889,0.71069634
11.916667,0.71141421
11.919444,0.71356784
11.922222,0.71284996
11.925000,0.71284996
11.927778,0.71356784
11.930556,0.71213209
11.933333,0.71141421
11.936111,0.70926059
11.938889,0.71069634
11.941667,0.70926059
11.944444,0.71069634
11.947222,0.71141421
11.950000,0.71141421
11.952778,0.71213209
11.955556,0.71069634
11.958333,0.71284996
11.961111,0.71356784
11.963889,0.71069634
11.966667,0.71213209
11.969444,0.70926059
11.972222,0.70926059
11.975000,0.70926059
11.977778,0.70926059
11.980556,0.71141421
11.983333,0.71213209
11.986111,0.71356784
11.988889,0.71356784
11.991667,0.71500359
11.994444,0.71500359
11.997222,0.71572146
12.000000,0.71643934
12.002778,0.71643934
12.005556,0.71643934
12.008333,0.71715721
12.011111,0.71859296
12.013889,0.72146447
12.016667,0.72361809
12.019444,0.72648959
12.022222,0.72648959
12.025000,0.72936109
12.027778,0.73366834
12.030556,0.73582197
12.033333,0.73797559
12.036111,0.73869347
12.038889,0.73725772
12.041667,0.73653984
12.044444,0.73438622
12.047222,0.73223259
12.050000,0.73223259
12.052778,0.72936109
12.055556,0.72936109
12.058333,0.72792534
12.061111,0.72648959
12.063889,0.72290022
12.066667,0.71931084
12.069444,0.71428571
12.072222,0.71069634
12.075000,0.70854271
12.077778,0.70782484
12.080556,0.70710696
12.083333,0.70926059
12.086111,0.70926059
12.088889,0.70782484
12.091667,0.70854271
12.094444,0.70854271
12.097222,0.70638909
12.100000,0.70495334
12.102778,0.70279971
12.105556,0.70136396
12.108333,0.70279971
12.111111,0.70136396
12.113889,0.70351759
12.116667,0.70495334
12.119444,0.70567121
12.122222,0.70495334
12.125000,0.70638909
12.127778,0.70567121
12.130556,0.70495334
12.133333,0.70567121
12.136111,0.70495334
12.138889,0.70495334
12.141667,0.70351759
12.144444,0.70208184
12.147222,0.69921034
12.150000,0.69418521
12.152778,0.68557071
12.155556,0.67552046
12.158333,0.66905958
12.161111,0.67336683
12.163889,0.68844221
12.166667,0.72361809
12.169444,0.77099785
12.172222,0.82842785
12.175000,0.88729361
12.177778,0.93539124
12.180556,0.96195262
12.183333,0.95908112
12.186111,0.92103374
12.188889,0.85355348
12.191667,0.77817660
12.194444,0.72002872
12.197222,0.68413496
12.200000,0.67121321
12.202778,0.67049533
12.205556,0.66977746
12.208333,0.66762383
12.211111,0.65757358
12.213889,0.64536971
12.216667,0.62526920
12.219444,0.61019383
12.222222,0.59798995
12.225000,0.59296482
12.227778,0.59224695
12.230556,0.59655420
12.233333,0.60373295
12.236111,0.61378320
12.238889,0.62742283
12.241667,0.64106246
12.244444,0.65398421
12.247222,0.66762383
12.250000,0.67910983
12.252778,0.68844221
12.255556,0.69418521
12.258333,0.69777459
12.261111,0.69992821
12.263889,0.69992821
12.266667,0.70208184
12.269444,0.70136396
12.272222,0.70208184
12.275000,0.70279971
12.277778,0.70351759
12.280556,0.70638909
12.283333,0.70638909
12.286111,0.70854271
12.288889,0.71069634
12.291667,0.70997846
12.294444,0.71069634
12.297222,0.70997846
12.300000,0.70997846
12.302778,0.70854271
12.305556,0.70854271
12.308333,0.70782484
12.311111,0.70997846
12.313889,0.71069634
12.316667,0.71141421
12.319444,0.71356784
12.322222,0.71428571
12.325000,0.71428571
12.327778,0.71356784
12.330556,0.71428571
12.333333,0.71284996
12.336111,0.71428571
12.338889,0.71428571
12.341667,0.71213209
12.344444,0.71356784
12.347222,0.71428571
12.350000,0.71572146
12.352778,0.71787509
12.355556,0.71859296
12.358333,0.71787509
12.361111,0.71859296
12.363889,0.72074659
12.366667,0.72074659
12.369444,0.72002872
12.372222,0.71859296
12.375000,0.71931084
12.377778,0.72002872
12.380556,0.72433597
12.383333,0.72433597
12.386111,0.72720747
12.388889,0.72936109
12.391667,0.72864322
12.394444,0.72936109
12.397222,0.73007897
12.400000,0.73151472
12.402778,0.73007897
12.405556,0.73007897
12.408333,0.73223259
12.411111,0.73438622
12.413889,0.73510409
12.416667,0.73653984
12.419444,0.73941134
12.422222,0.74228284
12.425000,0.74084709
12.427778,0.74443647
12.430556,0.74300072
12.433333,0.74515434
12.436111,0.74371859
12.438889,0.74371859
12.441667,0.74587222
12.444444,0.74515434
12.447222,0.74659009
12.450000,0.74874372
12.452778,0.75305097
12.455556,0.75448672
12.458333,0.75951184
12.461111,0.76094760
12.463889,0.76310122
12.466667,0.76381910
12.469444,0.76381910
12.472222,0.76453697
12.475000,0.76669060
12.477778,0.76812635
12.480556,0.77099785
12.483333,0.77386935
12.486111,0.77530510
12.488889,0.77817660
12.491667,0.77889447
12.494444,0.77889447
12.497222,0.78033022
12.500000,0.78104810
12.502778,0.78176597
12.505556,0.78463747
12.508333,0.78679110
12.511111,0.78822685
12.513889,0.78894472
12.516667,0.79038047
12.519444,0.79038047
12.522222,0.79109835
12.525000,0.79109835
12.527778,0.79253410
12.530556,0.79396985
12.533333,0.79396985
12.536111,0.79540560
12.538889,0.79396985
12.541667,0.79468772
12.544444,0.79181622
12.547222,0.79181622
12.550000,0.79038047
12.552778,0.79181622
12.555556,0.78966260
12.558333,0.78894472
12.561111,0.78966260
12.563889,0.78607322
12.566667,0.78104810
12.569444,0.77674085
12.572222,0.77099785
12.575000,0.76812635
12.577778,0.76525485
12.580556,0.76381910
12.583333,0.76238335
12.586111,0.76381910
12.588889,0.75951184
12.591667,0.75735822
12.594444,0.75448672
12.597222,0.74874372
12.600000,0.74874372
12.602778,0.74371859
12.605556,0.74084709
12.608333,0.73725772
12.611111,0.73582197
12.613889,0.73295047
12.616667,0.73007897
12.619444,0.72864322
12.622222,0.72720747
12.625000,0.72505384
12.627778,0.72361809
12.630556,0.72146447
12.633333,0.72074659
12.636111,0.72002872
12.638889,0.71787509
12.641667,0.71931084
12.644444,0.71931084
12.647222,0.71931084
12.650000,0.71787509
12.652778,0.71787509
12.655556,0.71787509
12.658333,0.71787509
12.661111,0.71787509
12.663889,0.71643934
12.666667,0.71715721
12.669444,0.71715721
12.672222,0.71715721
12.675000,0.71643934
12.677778,0.71428571
12.680556,0.71356784
12.683333,0.71500359
12.686111,0.71715721
12.688889,0.71643934
12.691667,0.71715721
12.694444,0.71643934
12.697222,0.71715721
12.700000,0.71572146
12.702778,0.71643934
12.705556,0.71715721
12.708333,0.71787509
12.711111,0.71715721
12.713889,0.71715721
12.716667,0.71643934
12.719444,0.71643934
12.722222,0.71643934
12.725000,0.71572146
12.727778,0.71500359
12.730556,0.71428571
12.733333,0.71428571
12.736111,0.71356784
12.738889,0.71284996
12.741667,0.71141421
12.744444,0.70997846
12.747222,0.71141421
12.750000,0.71356784
12.752778,0.71715721
12.755556,0.71787509
12.758333,0.71787509
12.761111,0.71787509
12.763889,0.71572146
12.766667,0.71428571
12.769444,0.70926059
12.772222,0.70926059
12.775000,0.70710696
12.777778,0.70710696
12.780556,0.70782484
12.783333,0.70854271
12.786111,0.70854271
12.788889,0.71069634
12.791667,0.71069634
12.794444,0.71069634
12.797222,0.70854271
12.800000,0.70854271
12.802778,0.70926059
12.805556,0.70782484
12.808333,0.70854271
12.811111,0.70854271
12.813889,0.70997846
12.816667,0.70854271
12.819444,0.70782484
12.822222,0.70926059
12.825000,0.70710696
12.827778,0.70710696
12.830556,0.70638909
12.833333,0.70567121
12.836111,0.70495334
12.838889,0.70208184
12.841667,0.70208184
12.844444,0.69992821
12.847222,0.70136396
12.850000,0.70351759
12.852778,0.70567121
12.855556,0.70710696
12.858333,0.70854271
12.861111,0.70854271
12.863889,0.70710696
12.866667,0.70638909
12.869444,0.70423546
12.872222,0.70495334
12.875000,0.70423546
12.877778,0.70638909
12.880556,0.70567121
12.883333,0.70495334
12.886111,0.70495334
12.888889,0.70495334
12.891667,0.70064609
12.894444,0.70208184
12.897222,0.70423546
12.900000,0.70638909
12.902778,0.70926059
12.905556,0.71213209
12.908333,0.71428571
12.911111,0.71428571
12.913889,0.71284996
12.916667,0.71500359
12.919444,0.71643934
12.922222,0.71787509
12.925000,0.71787509
12.927778,0.71859296
12.930556,0.71787509
12.933333,0.71787509
12.936111,0.71715721
12.938889,0.72074659
12.941667,0.72433597
12.944444,0.72648959
12.947222,0.73007897
12.950000,0.73223259
12.952778,0.73438622
12.955556,0.73582197
12.958333,0.73223259
12.961111,0.73007897
12.963889,0.72864322
12.966667,0.72577172
12.969444,0.72218234
12.972222,0.71787509
12.975000,0.71715721
12.977778,0.71213209
12.980556,0.71069634
12.983333,0.70926059
12.986111,0.70997846
12.988889,0.70854271
12.991667,0.70782484
12.994444,0.70638909
12.997222,0.70423546
13.000000,0.70136396
13.002778,0.70064609
13.005556,0.70136396
13.008333,0.70208184
13.011111,0.70208184
13.013889,0.70351759
13.016667,0.70208184
13.019444,0.70136396
13.022222,0.70136396
13.025000,0.70064609
13.027778,0.69777459
13.030556,0.69849246
13.033333,0.69921034
13.036111,0.69921034
13.038889,0.69849246
13.041667,0.69849246
13.044444,0.69849246
13.047222,0.69921034
13.050000,0.69849246
13.052778,0.69992821
13.055556,0.69921034
13.058333,0.69777459
13.061111,0.69777459
13.063889,0.69921034
13.066667,0.69849246
13.069444,0.69992821
13.072222,0.69633884
13.075000,0.69203159
13.077778,0.68628859
13.080556,0.68054559
13.083333,0.67264896
13.086111,0.66547021
13.088889,0.66762383
13.091667,0.68341709
13.094444,0.71572146
13.097222,0.75879397
13.100000,0.81191673
13.102778,0.86575736
13.105556,0.91385499
13.108333,0.94759512
13.111111,0.95692749
13.113889,0.93323762
13.116667,0.87796123
13.119444,0.80258435
13.122222,0.72864322
13.125000,0.67839196
13.127778,0.65183058
13.130556,0.64967696
13.133333,0.65254846
13.136111,0.65757358
13.138889,0.65757358
13.141667,0.65183058
13.144444,0.63819095
13.147222,0.62526920
13.150000,0.60947595
13.152778,0.59870782
13.155556,0.59224695
13.158333,0.59152907
13.161111,0.59368270
13.163889,0.59583632
13.166667,0.59942570
13.169444,0.60588658
13.172222,0.61665470
13.175000,0.62742283
13.177778,0.64106246
13.180556,0.65470208
13.183333,0.66762383
13.186111,0.67695621
13.188889,0.68557071
13.191667,0.68772434
13.194444,0.69131371
13.197222,0.69274946
13.200000,0.69418521
13.202778,0.69418521
13.205556,0.69633884
13.208333,0.69777459
13.211111,0.69777459
13.213889,0.70064609
13.216667,0.70279971
13.219444,0.70567121
13.222222,0.70782484
13.225000,0.70926059
13.227778,0.70997846
13.230556,0.70854271
13.233333,0.70710696
13.236111,0.70638909
13.238889,0.70423546
13.241667,0.70423546
13.244444,0.70279971
13.247222,0.70567121
13.250000,0.70495334
13.252778,0.70926059
13.255556,0.71141421
13.258333,0.71284996
13.261111,0.71428571
13.263889,0.71356784
13.266667,0.71284996
13.269444,0.71356784
13.272222,0.71141421
13.275000,0.71284996
13.277778,0.71213209
13.280556,0.71356784
13.283333,0.71284996
13.286111,0.71069634
13.288889,0.71141421
13.291667,0.71213209
13.294444,0.71428571
13.297222,0.71715721
13.300000,0.71931084
13.302778,0.72218234
13.305556,0.72361809
13.308333,0.72290022
13.311111,0.72290022
13.313889,0.72218234
13.316667,0.72218234
13.319444,0.72146447
13.322222,0.72146447
13.325000,0.72218234
13.327778,0.72361809
13.330556,0.72290022
13.333333,0.72361809
13.336111,0.72505384
13.338889,0.72792534
13.341667,0.73079684
13.344444,0.73223259
13.347222,0.73438622
13.350000,0.73510409
13.352778,0.73510409
13.355556,0.73797559
13.358333,0.73653984
13.361111,0.73941134
13.363889,0.73941134
13.366667,0.74012922
13.369444,0.73941134
13.372222,0.74228284
13.375000,0.74228284
13.377778,0.74515434
13.380556,0.74802584
13.383333,0.75017947
13.386111,0.75161522
13.388889,0.75376884
13.391667,0.75305097
13.394444,0.75520459
13.397222,0.75448672
13.400000,0.75664034
13.402778,0.75735822
13.405556,0.75735822
13.408333,0.76022972
13.411111,0.76094760
13.413889,0.76310122
13.416667,0.76597272
13.419444,0.77027997
13.422222,0.77243360
13.425000,0.77386935
13.427778,0.77530510
13.430556,0.77674085
13.433333,0.77674085
13.436111,0.77530510
13.438889,0.77530510
13.441667,0.77458722
13.444444,0.77745872
13.447222,0.77745872
13.450000,0.77817660
13.452778,0.78176597
13.455556,0.78463747
13.458333,0.78607322
13.461111,0.78607322
13.463889,0.78822685
13.466667,0.78463747
13.469444,0.78535535
13.472222,0.78104810
13.475000,0.78320172
13.477778,0.78248385
13.480556,0.78176597
13.483333,0.77961235
13.486111,0.77817660
13.488889,0.77458722
13.491667,0.77171572
13.494444,0.76812635
13.497222,0.76453697
13.500000,0.76166547
13.502778,0.75951184
13.505556,0.75448672
13.508333,0.75017947
13.511111,0.74802584
13.513889,0.74587222
13.516667,0.74228284
13.519444,0.74012922
13.522222,0.73941134
13.525000,0.73510409
13.527778,0.73295047
13.530556,0.73079684
13.533333,0.72720747
13.536111,0.72505384
13.538889,0.72290022
13.541667,0.72218234
13.544444,0.71931084
13.547222,0.71859296
13.550000,0.71931084
13.552778,0.71859296
13.555556,0.71787509
13.558333,0.71643934
13.561111,0.71715721
13.563889,0.71643934
13.566667,0.71500359
13.569444,0.71428571
13.572222,0.71284996
13.575000,0.71141421
13.577778,0.71213209
13.580556,0.71356784
13.583333,0.71428571
13.586111,0.71428571
13.588889,0.71787509
13.591667,0.71715721
13.594444,0.71643934
13.597222,0.71572146
13.600000,0.71715721
13.602778,0.71643934
13.605556,0.71500359
13.608333,0.71428571
13.611111,0.71643934
13.613889,0.71500359
13.616667,0.71715721
13.619444,0.71931084
13.622222,0.72002872
13.625000,0.72002872
13.627778,0.72002872
13.630556,0.71931084
13.633333,0.71715721
13.636111,0.71643934
13.638889,0.71572146
13.641667,0.71572146
13.644444,0.71500359
13.647222,0.71572146
13.650000,0.71572146
13.652778,0.71572146
13.655556,0.71572146
13.658333,0.71428571
13.661111,0.71572146
13.663889,0.71500359
13.666667,0.71356784
13.669444,0.71213209
13.672222,0.70997846
13.675000,0.71069634
13.677778,0.70997846
13.680556,0.71069634
13.683333,0.71069634
13.686111,0.71141421
13.688889,0.70997846
13.691667,0.70854271
13.694444,0.71069634
13.697222,0.70782484
13.700000,0.70782484
13.702778,0.70710696
13.705556,0.70638909
13.708333,0.70567121
13.711111,0.70423546
13.713889,0.70423546
13.716667,0.70567121
13.719444,0.70567121
13.722222,0.70638909
13.725000,0.70638909
13.727778,0.70638909
13.730556,0.70495334
13.733333,0.70423546
13.736111,0.70423546
13.738889,0.70208184
13.741667,0.70423546
13.744444,0.69992821
13.747222,0.70208184
13.750000,0.70279971
13.752778,0.70495334
13.755556,0.70423546
13.758333,0.70351759
13.761111,0.70279971
13.763889,0.70208184
13.766667,0.70208184
13.769444,0.70064609
13.772222,0.69992821
13.775000,0.70279971
13.777778,0.70351759
13.780556,0.70423546
13.783333,0.70423546
13.786111,0.70710696
13.788889,0.70997846
13.791667,0.71141421
13.794444,0.71141421
13.797222,0.71213209
13.800000,0.71141421
13.802778,0.71284996
13.805556,0.71213209
13.808333,0.71356784
13.811111,0.71787509
13.813889,0.72146447
13.816667,0.72433597
13.819444,0.72864322
13.822222,0.73007897
13.825000,0.73079684
13.827778,0.72864322
13.830556,0.72720747
13.833333,0.72577172
13.836111,0.72290022
13.838889,0.72074659
13.841667,0.72002872
13.844444,0.71859296
13.847222,0.71715721
13.850000,0.71643934
13.852778,0.71572146
13.855556,0.71500359
13.858333,0.70997846
13.861111,0.70997846
13.863889,0.70423546
13.866667,0.70064609
13.869444,0.69777459
13.872222,0.69633884
13.875000,0.69562096
13.877778,0.69490309
13.880556,0.69418521
13.883333,0.69633884
13.886111,0.69705671
13.888889,0.69705671
13.891667,0.69705671
13.894444,0.69633884
13.897222,0.69562096
13.900000,0.69633884
13.902778,0.69490309
13.905556,0.69418521
13.908333,0.69346734
13.911111,0.69274946
13.913889,0.69274946
13.916667,0.69418521
13.919444,0.69633884
13.922222,0.69633884
13.925000,0.69849246
13.927778,0.69705671
13.930556,0.69418521
13.933333,0.69490309
13.936111,0.69418521
13.938889,0.69346734
13.941667,0.69274946
13.944444,0.69418521
13.947222,0.69346734
13.950000,0.69203159
13.952778,0.68987796
13.955556,0.68341709
13.958333,0.67193108
13.961111,0.66188083
13.963889,0.65757358
13.966667,0.66547021
13.969444,0.68557071
13.972222,0.72290022
13.975000,0.77530510
13.977778,0.83345298
13.980556,0.89016511
13.983333,0.93180187
13.986111,0.94903087
13.988889,0.93826274
13.991667,0.88801149
13.994444,0.81765973
13.997222,0.74730797
14.000000,0.69777459
14.002778,0.66977746
14.005556,0.65972721
14.008333,0.65829146
14.011111,0.65757358
14.013889,0.65398421
14.016667,0.64178033
14.019444,0.62670495
14.022222,0.60947595
14.025000,0.59727207
14.027778,0.58865757
14.030556,0.58506820
14.033333,0.58793970
14.036111,0.59296482
14.038889,0.60229720
14.041667,0.61234745
14.044444,0.62670495
14.047222,0.64034458
14.050000,0.65398421
14.052778,0.66547021
14.055556,0.67480258
14.058333,0.68126346
14.061111,0.68628859
14.063889,0.68772434
14.066667,0.68844221
14.069444,0.68844221
14.072222,0.68916009
14.075000,0.68987796
14.077778,0.69203159
14.080556,0.69490309
14.083333,0.69490309
14.086111,0.69633884
14.088889,0.69849246
14.091667,0.69921034
14.094444,0.69992821
14.097222,0.69921034
14.100000,0.69992821
14.102778,0.69921034
14.105556,0.69921034
14.108333,0.69992821
14.111111,0.70064609
14.113889,0.69921034
14.116667,0.70208184
14.119444,0.70351759
14.122222,0.70208184
14.125000,0.70351759
14.127778,0.70423546
14.130556,0.70423546
14.133333,0.70567121
14.136111,0.70423546
14.138889,0.70208184
14.141667,0.70279971
14.144444,0.70567121
14.147222,0.70638909
14.150000,0.70782484
14.152778,0.70997846
14.155556,0.71141421
14.158333,0.71213209
14.161111,0.71141421
14.163889,0.71213209
14.166667,0.71356784
14.169444,0.71284996
14.172222,0.71356784
14.175000,0.71356784
14.177778,0.71500359
14.180556,0.71643934
14.183333,0.71931084
14.186111,0.72074659
14.188889,0.72290022
14.191667,0.72505384
14.194444,0.72505384
14.197222,0.72505384
14.200000,0.72720747
14.202778,0.72648959
14.205556,0.72720747
14.208333,0.72864322
14.211111,0.73007897
14.213889,0.73295047
14.216667,0.73438622
14.219444,0.73582197
14.222222,0.73797559
14.225000,0.74012922
14.227778,0.74228284
14.230556,0.74443647
14.233333,0.74371859
14.236111,0.74587222
14.238889,0.74659009
14.241667,0.74874372
14.244444,0.75089734
14.247222,0.75305097
14.250000,0.75592247
14.252778,0.75807609
14.255556,0.76022972
14.258333,0.76166547
14.261111,0.76381910
14.263889,0.76381910
14.266667,0.76597272
14.269444,0.76740847
14.272222,0.76812635
14.275000,0.76956210
14.277778,0.77171572
14.280556,0.77386935
14.283333,0.77458722
14.286111,0.77745872
14.288889,0.77745872
14.291667,0.77817660
14.294444,0.77817660
14.297222,0.77745872
14.300000,0.77889447
14.302778,0.78104810
14.305556,0.78033022
14.308333,0.78248385
14.311111,0.78104810
14.313889,0.78104810
14.316667,0.78248385
14.319444,0.78104810
14.322222,0.78104810
14.325000,0.77961235
14.327778,0.77602297
14.330556,0.77386935
14.333333,0.77171572
14.336111,0.76740847
14.338889,0.76525485
14.341667,0.76238335
14.344444,0.75951184
14.347222,0.75520459
14.350000,0.75233309
14.352778,0.75089734
14.355556,0.74659009
14.358333,0.74587222
14.361111,0.74156497
14.363889,0.73725772
14.366667,0.73366834
14.369444,0.73079684
14.372222,0.72936109
14.375000,0.72505384
14.377778,0.72361809
14.380556,0.72218234
14.383333,0.72146447
14.386111,0.71859296
14.388889,0.71931084
14.391667,0.71643934
14.394444,0.71572146
14.397222,0.71356784
14.400000,0.70997846
14.402778,0.71141421
14.405556,0.70854271
14.408333,0.70638909
14.411111,0.70710696
14.413889,0.70638909
14.416667,0.70782484
14.419444,0.70782484
14.422222,0.70926059
14.425000,0.70638909
14.427778,0.70567121
14.430556,0.70638909
14.433333,0.70567121
14.436111,0.70495334
14.438889,0.70279971
14.441667,0.70495334
14.444444,0.70495334
14.447222,0.70638909
14.450000,0.70854271
14.452778,0.70854271
14.455556,0.70926059
14.458333,0.70782484
14.461111,0.70782484
14.463889,0.70782484
14.466667,0.70782484
14.469444,0.70854271
14.472222,0.70926059
14.475000,0.70854271
14.477778,0.70926059
14.480556,0.70854271
14.483333,0.71069634
14.486111,0.70997846
14.488889,0.71069634
14.491667,0.71213209
14.494444,0.71213209
14.497222,0.70926059
14.500000,0.71213209
14.502778,0.70782484
14.505556,0.70710696
14.508333,0.70710696
14.511111,0.70567121
14.513889,0.70567121
14.516667,0.70638909
14.519444,0.70638909
14.522222,0.70782484
14.525000,0.70782484
14.527778,0.70710696
14.530556,0.70638909
14.533333,0.70638909
14.536111,0.70423546
14.538889,0.70567121
14.541667,0.70423546
14.544444,0.70423546
14.547222,0.70351759
14.550000,0.70351759
14.552778,0.70279971
14.555556,0.70495334
14.558333,0.70423546
14.561111,0.70208184
14.563889,0.70351759
14.566667,0.70279971
14.569444,0.70208184
14.572222,0.70136396
14.575000,0.70064609
14.577778,0.70064609
14.580556,0.70136396
14.583333,0.70279971
14.586111,0.70208184
14.588889,0.70208184
14.591667,0.70136396
14.594444,0.70136396
14.597222,0.70064609
14.600000,0.70064609
14.602778,0.69921034
14.605556,0.69777459
14.608333,0.69633884
14.611111,0.69562096
14.613889,0.69921034
14.616667,0.69992821
14.619444,0.70208184
14.622222,0.70064609
14.625000,0.70064609
14.627778,0.70136396
14.630556,0.70064609
14.633333,0.69849246
14.636111,0.69849246
14.638889,0.69705671
14.641667,0.69633884
14.644444,0.69633884
14.647222,0.69705671
14.650000,0.69849246
14.652778,0.69777459
14.655556,0.69992821
14.658333,0.69992821
14.661111,0.70064609
14.663889,0.69849246
14.666667,0.69633884
14.669444,0.69562096
14.672222,0.69490309
14.675000,0.69562096
14.677778,0.69346734
14.680556,0.69490309
14.683333,0.69777459
14.686111,0.69705671
14.688889,0.69849246
14.691667,0.69992821
14.694444,0.69992821
14.697222,0.69921034
14.700000,0.69849246
14.702778,0.69562096
14.705556,0.69633884
14.708333,0.69562096
14.711111,0.69633884
14.713889,0.69705671
14.716667,0.69849246
14.719444,0.69705671
14.722222,0.69705671
14.725000,0.69992821
14.727778,0.69992821
14.730556,0.70064609
14.733333,0.70208184
14.736111,0.70136396
14.738889,0.70136396
14.741667,0.70208184
14.744444,0.70423546
14.747222,0.70279971
14.750000,0.70782484
14.752778,0.70782484
14.755556,0.71069634
14.758333,0.71356784
14.761111,0.71500359
14.763889,0.71643934
14.766667,0.71859296
14.769444,0.72074659
14.772222,0.72074659
14.775000,0.72146447
14.777778,0.72074659
14.780556,0.72074659
14.783333,0.71931084
14.786111,0.71859296
14.788889,0.71931084
14.791667,0.71715721
14.794444,0.71787509
14.797222,0.71500359
14.800000,0.71141421
14.802778,0.70997846
14.805556,0.70710696
14.808333,0.70495334
14.811111,0.70279971
14.813889,0.69992821
14.816667,0.69849246
14.819444,0.69633884
14.822222,0.69633884
14.825000,0.69346734
14.827778,0.69346734
14.830556,0.69203159
14.833333,0.69203159
14.836111,0.69131371
14.838889,0.69131371
14.841667,0.69059584
14.844444,0.68987796
14.847222,0.69059584
14.850000,0.69203159
14.852778,0.69059584
14.855556,0.69059584
14.858333,0.69131371
14.861111,0.69131371
14.863889,0.69203159
14.866667,0.69131371
14.869444,0.68987796
14.872222,0.68987796
14.875000,0.68987796
14.877778,0.68987796
14.880556,0.69059584
14.883333,0.69203159
14.886111,0.69346734
14.888889,0.69418521
14.891667,0.69346734
14.894444,0.69346734
14.897222,0.69131371
14.900000,0.68772434
14.902778,0.68054559
14.905556,0.67264896
14.908333,0.66259871
14.911111,0.65541996
14.913889,0.65254846
14.916667,0.66475233
14.919444,0.68628859
14.922222,0.72577172
14.925000,0.77243360
14.927778,0.82483848
14.930556,0.87437186
14.933333,0.91816224
14.936111,0.94544149
14.938889,0.94472362
14.941667,0.91241924
14.944444,0.85139986
14.947222,0.78033022
14.950000,0.72002872
14.952778,0.68198134
14.955556,0.66475233
14.958333,0.66188083
14.961111,0.66259871
14.963889,0.66116296
14.966667,0.65254846
14.969444,0.63747308
14.972222,0.61952620
14.975000,0.60229720
14.977778,0.58937545
14.980556,0.58147882
14.983333,0.58004307
14.986111,0.58363245
14.988889,0.58937545
14.991667,0.59942570
14.994444,0.61234745
14.997222,0.62383345
15.000000,0.63460158
15.002778,0.64752333
15.005556,0.65685571
15.008333,0.66618808
15.011111,0.67336683
15.013889,0.68054559
15.016667,0.68341709
15.019444,0.68628859
15.022222,0.68987796
15.025000,0.69059584
15.027778,0.69131371
15.030556,0.69274946
15.033333,0.69059584
15.036111,0.69203159
15.038889,0.69131371
15.041667,0.69274946
15.044444,0.69346734
15.047222,0.69346734
15.050000,0.69633884
15.052778,0.69705671
15.055556,0.69777459
15.058333,0.69777459
15.061111,0.69921034
15.063889,0.69992821
15.066667,0.69777459
15.069444,0.69705671
15.072222,0.69633884
15.075000,0.69777459
15.077778,0.69849246
15.080556,0.69777459
15.083333,0.69921034
15.086111,0.70136396
15.088889,0.70279971
15.091667,0.70351759
15.094444,0.70423546
15.097222,0.70351759
15.100000,0.70351759
15.102778,0.70136396
15.105556,0.70208184
15.108333,0.70279971
15.111111,0.70279971
15.113889,0.70279971
15.116667,0.70351759
15.119444,0.70638909
15.122222,0.70782484
15.125000,0.70926059
15.127778,0.70926059
15.130556,0.71069634
15.133333,0.70997846
15.136111,0.70926059
15.138889,0.70997846
15.141667,0.70997846
15.144444,0.71213209
15.147222,0.71213209
15.150000,0.71356784
15.152778,0.71572146
15.155556,0.71715721
15.158333,0.71715721
15.161111,0.71715721
15.163889,0.71643934
15.166667,0.71859296
15.169444,0.71787509
15.172222,0.71859296
15.175000,0.72002872
15.177778,0.72074659
15.180556,0.72361809
15.183333,0.72648959
15.186111,0.72648959
15.188889,0.72864322
15.191667,0.73151472
15.194444,0.73223259
15.197222,0.73223259
15.200000,0.73151472
15.202778,0.73295047
15.205556,0.73438622
15.208333,0.73366834
15.211111,0.73582197
15.213889,0.73653984
15.216667,0.73941134
15.219444,0.74156497
15.222222,0.74730797
15.225000,0.74730797
15.227778,0.75017947
15.230556,0.75161522
15.233333,0.75376884
15.236111,0.75448672
15.238889,0.75520459
15.241667,0.75879397
15.244444,0.75879397
15.247222,0.76094760
15.250000,0.76238335
15.252778,0.76238335
15.255556,0.76740847
15.258333,0.76740847
15.261111,0.76812635
15.263889,0.77099785
15.266667,0.77099785
15.269444,0.77099785
15.272222,0.77099785
15.275000,0.77315147
15.277778,0.77386935
15.280556,0.77530510
15.283333,0.77817660
15.286111,0.77961235
15.288889,0.78104810
15.291667,0.78176597
15.294444,0.78248385
15.297222,0.78176597
15.300000,0.78176597
15.302778,0.77889447
15.305556,0.77745872
15.308333,0.77674085
15.311111,0.77458722
15.313889,0.77386935
15.316667,0.77171572
15.319444,0.77171572
15.322222,0.77099785
15.325000,0.76740847
15.327778,0.76740847
15.330556,0.76453697
15.333333,0.76238335
15.336111,0.75951184
15.338889,0.75520459
15.341667,0.75305097
15.344444,0.75017947
15.347222,0.74659009
15.350000,0.74371859
15.352778,0.74156497
15.355556,0.73941134
15.358333,0.73510409
15.361111,0.73295047
15.363889,0.73007897
15.366667,0.73007897
15.369444,0.72792534
15.372222,0.72505384
15.375000,0.72146447
15.377778,0.72002872
15.380556,0.71715721
15.383333,0.71572146
15.386111,0.71284996
15.388889,0.71500359
15.391667,0.71356784
15.394444,0.71356784
15.397222,0.71284996
15.400000,0.71141421
15.402778,0.71069634
15.405556,0.70782484
15.408333,0.70567121
15.411111,0.70351759
15.413889,0.70208184
15.416667,0.70208184
15.419444,0.70279971
15.422222,0.70423546
15.425000,0.70567121
15.427778,0.70638909
15.430556,0.70495334
15.433333,0.70423546
15.436111,0.70208184
15.438889,0.70136396
15.441667,0.70136396
15.444444,0.69992821
15.447222,0.70136396
15.450000,0.70423546
15.452778,0.70351759
15.455556,0.70351759
15.458333,0.70423546
15.461111,0.70351759
15.463889,0.70136396
15.466667,0.70064609
15.469444,0.70136396
15.472222,0.70136396
15.475000,0.70279971
15.477778,0.70279971
15.480556,0.70351759
15.483333,0.70567121
15.486111,0.70567121
15.488889,0.70495334
15.491667,0.70567121
15.494444,0.70279971
15.497222,0.70208184
15.500000,0.69849246
15.502778,0.70064609
15.505556,0.69992821
15.508333,0.70064609
15.511111,0.70208184
15.513889,0.70495334
15.516667,0.70567121
15.519444,0.70782484
15.522222,0.70782484
15.525000,0.70638909
15.527778,0.70495334
15.530556,0.70208184
15.533333,0.70064609
15.536111,0.70064609
15.538889,0.69849246
15.541667,0.69849246
15.544444,0.69777459
15.547222,0.69849246
15.550000,0.69777459
15.552778,0.69849246
15.555556,0.69992821
15.558333,0.69921034
15.561111,0.70064609
15.563889,0.69921034
15.566667,0.69921034
15.569444,0.69562096
15.572222,0.69633884
15.575000,0.69490309
15.577778,0.69346734
15.580556,0.69562096
15.583333,0.69562096
15.586111,0.69633884
15.588889,0.69705671
15.591667,0.69777459
15.594444,0.69992821
15.597222,0.69921034
15.600000,0.69777459
